close,date,high,low,open,volume,volumetrend_macd,volumetrend_macd_signal,volumetrend_macd_diff,volumetrend_sma_fast,volumetrend_sma_slow,volumetrend_ema_fast,volumetrend_ema_slow,volumetrend_vortex_ind_pos,volumetrend_vortex_ind_neg,volumetrend_vortex_ind_diff,volumetrend_trix,volumetrend_mass_index,volumetrend_dpo,volumetrend_kst,volumetrend_kst_sig,volumetrend_kst_diff,volumetrend_ichimoku_conv,volumetrend_ichimoku_base,volumetrend_ichimoku_a,volumetrend_ichimoku_b,volumetrend_stc,volumetrend_adx,volumetrend_adx_pos,volumetrend_adx_neg,volumetrend_cci,volumetrend_visual_ichimoku_a,volumetrend_visual_ichimoku_b,volumetrend_aroon_up,volumetrend_aroon_down,volumetrend_aroon_ind,volumetrend_psar_up,volumetrend_psar_down,volumetrend_psar_up_indicator,volumetrend_psar_down_indicator,volume_adi,volume_obv,volume_cmf,volume_fi,volume_em,volume_sma_em,volume_vpt,volume_vwap,volume_mfi,volume_nvi,volumevolatility_bbm,volumevolatility_bbh,volumevolatility_bbl,volumevolatility_bbw,volumevolatility_bbp,volumevolatility_bbhi,volumevolatility_bbli,volumevolatility_kcc,volumevolatility_kch,volumevolatility_kcl,volumevolatility_kcw,volumevolatility_kcp,volumevolatility_kchi,volumevolatility_kcli,volumevolatility_dcl,volumevolatility_dch,volumevolatility_dcm,volumevolatility_dcw,volumevolatility_dcp,volumevolatility_atr,volumevolatility_ui,momentum_rsi,momentum_stoch_rsi,momentum_stoch_rsi_k,momentum_stoch_rsi_d,momentum_tsi,momentum_uo,momentum_stoch,momentum_stoch_signal,momentum_wr,momentum_ao,momentum_roc,momentum_ppo,momentum_ppo_signal,momentum_ppo_hist,momentum_pvo,momentum_pvo_signal,momentum_pvo_hist,momentum_kama
61.6377,2019-08-12,62.9904,61.5428,62.2943,4615300,0.0,0.0,0.0,61.5428,61.5428,61.5428,61.5428,0.0,0.0,0.0,-25.725699206864398,1.0,22.365023907863375,-266.54277117735444,-266.54277117735444,0.0,62.64235,62.64235,62.64235,62.64235,0.0,0.0,0.0,0.0,0.0,85.43296669976172,84.64846791104051,0.0,0.0,0.0,60.805876,62.2943,0.0,0.0,194.72412881769839,61.6377,3.1591725326820823,0.0,0.0,0.0,0.0,62.27583333333333,50.0,1000.0,61.5428,61.5428,61.5428,0.0,0.0,0.0,0.0,62.27583333333333,61.57973333333333,62.97193333333333,-2.235538130093272,1.026528755447012,0.0,1.0,62.9904,62.2943,62.64235,-1.131082758665516,2.079586266341041,0.0,0.0,100.0,0.0,0.0,0.0,0.0,-0.0,207.9586266341041,207.9586266341041,107.9586266341041,0.0,0.0,0.0,0.0,0.0,0.0,0.0,0.0,61.5428
62.1124,2019-08-13,63.2277,60.7755,61.2976,4881100,-0.06120911680910979,-0.012241823361821958,-0.04896729344728783,61.15915,61.15915,61.42475384615385,61.48596296296296,0.07265727530301597,0.04006279582220882,0.03259447948080715,-0.002435106645292492,2.2648565986102525,22.748673907863378,-271.1150504015335,-268.82891078944397,-2.286139612089528,62.64235,62.64235,62.64235,62.64235,0.0,0.0,0.0,0.0,-66.66666666666667,85.43296669976172,84.64846791104051,0.0,0.0,0.0,60.805876,62.2943,0.0,0.0,290.43984889437854,-0.47469999999999857,2.346986781379397,-47.658844519999924,1179891.5675452854,1179891.5675452854,-0.7744016281352171,62.02040727420287,0.0,1000.0,61.15915,61.92644999999999,60.391850000000005,2.509191183984708,0.25,0.0,0.0,62.02138333333333,60.708283333333334,63.33448333333333,-4.234346057529079,0.9744053512045286,1.0,1.0,62.9904,62.2943,62.64235,-1.138178015881518,3.181870420916529,0.0,0.0,0.0,0.0,0.0,0.0,-100.0,-77.59911003236252,318.1870420916529,263.0728343628785,218.18704209165293,0.0,0.0,-0.09954974088310217,-0.019909948176620437,-0.07963979270648174,0.06140108379684916,0.012280216759369833,0.049120867037479324,61.20641586036962
59.3437,2019-08-14,60.8151,58.7426,60.4987,6971500,-0.27063609873296457,-0.06392067843605048,-0.2067154202969141,60.353633333333335,60.353633333333335,61.01211479289941,61.282750891632375,0.18756131510272242,0.06005881452212785,0.12750250058059456,-0.012844088067209844,3.3408046330574335,23.55419057453004,-280.7150689594117,-272.79096351276655,-7.9241054466451715,61.5547,61.5547,61.5547,61.5547,0.0,0.0,0.0,0.0,-100.0,85.43296669976172,84.64846791104051,0.0,8.0,-8.0,60.805876,62.2943,1.0,0.0,1008.5286283507583,-59.8184,5.508262040280765,-58.08469640714277,856130.1368131792,1018010.8521792323,-2.7594088716790743,61.371653566550776,0.0,966.5506659755988,60.353633333333335,62.716546012398915,57.990720654267754,7.83022512005269,0.1591001124149838,0.0,0.0,61.353855555555555,60.37298888888889,62.33472222222222,-3.1974084033838586,1.8310960828292457,0.0,1.0,60.8151,62.2943,61.5547,2.4508880713616223,-1.4010951865873444,0.0,0.0,0.0,0.0,0.0,0.0,-100.0,-221.25474083438672,-140.10951865873443,128.67871668900753,-240.10951865873443,0.0,0.0,-0.44161871782083717,-0.10425170210546379,-0.33736701571537336,-0.25001520777464625,-0.040178868147433384,-0.20983633962721288,60.234438609387745
59.2805,2019-08-15,59.7393,58.4973,59.2567,4008300,-0.4512009865794866,-0.14137674006473772,-0.3098242465147489,59.88955,59.88955,60.62522020937642,61.07642119595591,0.24337532634496908,0.08852786652590408,0.154847459819065,-0.02890467605371555,4.331002387659359,24.018273907863374,-286.2459397616735,-276.15470757499327,-10.091232186680259,61.0168,61.0168,61.0168,61.0168,0.0,0.0,0.0,0.0,-90.10833230442789,85.43296669976172,84.64846791104051,0.0,12.0,-12.0,60.805876,62.2943,0.0,1.0,1254.3719617531626,-119.0989,5.175350529132679,-51.86424072755096,943455.5039178097,993159.0694254249,-3.0069550587732787,60.83180623523204,0.0,962.5145000863836,59.88955,62.491856156085404,57.287243843914595,8.690351342046833,0.23249688612843117,0.0,0.0,60.8065,59.9502,61.662800000000004,-2.8164752123539456,1.8483592198995669,0.0,1.0,59.7393,62.2943,61.0168,4.2661866719653085,-0.48610567514677006,0.0,0.0,0.0,0.0,0.0,0.0,-100.0,-134.6196348848518,-48.610567514677,43.15565197274717,-148.610567514677,0.0,0.0,-0.7387482399007397,-0.23115100966451899,-0.5075972302362207,-0.5008248257485635,-0.1323080596676594,-0.36851676608090406,59.597653444224775
60.0557,2019-08-16,60.5698,59.1934,59.4782,2540900,-0.5319979672389508,-0.21950098549958033,-0.31249698173937046,59.75032,59.75032,60.40494017716467,60.93693814440362,0.23424413384137938,0.1309242043311919,0.10331992951018748,-0.045805056909239215,5.39412452444864,24.157503907863372,-287.9052605915509,-278.50481817830484,-9.400442413246083,61.0168,61.0168,61.0168,61.0168,0.0,0.0,0.0,0.0,-49.499992601713146,85.43296669976172,84.64846791104051,0.0,12.0,-12.0,60.805876,62.2432,0.0,0.0,1345.7648976637531,-59.0432,4.449839293931663,-38.48295308504373,-956081.7707561473,505848.85938003176,-2.2923105748398367,60.61641493676774,24.756687838655893,962.5145000863836,59.75032,62.143593438284896,57.35704656171511,8.010914211957001,0.383648898807168,0.0,0.0,60.59462666666667,59.69126666666667,61.49798666666667,-2.9816505181867585,1.2755638209942184,0.0,1.0,59.7393,62.2943,61.0168,4.276127726177868,-0.21365949119373903,0.0,0.0,21.151114346634145,0.0,0.0,0.0,-98.06190404757058,-54.1985789425119,-21.3659491193739,-70.02867843092844,-121.3659491193739,0.0,0.0,-0.8730303547222266,-0.35952687867606054,-0.5135034760461661,-0.5911888235395804,-0.22408421244204363,-0.3671046110975367,59.45596261561883
61.5507,2019-08-19,61.8513,60.2455,61.2422,3530000,-0.5053095849380895,-0.2766627053872822,-0.2286468795508073,59.83285,59.83285,60.38041091913934,60.885720504077426,0.23594374363409032,0.20003532888485498,0.03590841474923534,-0.05912343669630927,6.401046636338972,24.074973907863374,-286.9216812761033,-279.90762869460457,-7.014052581498731,61.0168,61.0168,61.0168,61.0168,0.0,0.0,0.0,0.0,27.75582470381177,85.43296669976172,84.64846791104051,0.0,12.0,-12.0,60.805876,62.193122,0.0,0.0,1608.7524149022995,2.5075000000000003,4.419883842473788,-23.734318148608892,-1506899.231040438,103299.24129593783,-1.1983120636882543,60.70038960424733,40.260809504533775,962.5145000863836,59.83285,62.04855654118876,57.61714345881124,7.4063212472371225,0.5931192809898478,0.0,0.0,60.681022222222225,59.826705555555556,61.535338888888894,-2.815762277497714,0.7548950753363647,1.0,1.0,59.7393,62.2943,61.0168,4.270229480962381,0.19812133072407037,0.0,0.0,41.344601174385886,0.0,0.0,0.0,-93.66306819741497,-18.552204441774993,19.812133072407036,-16.72146118721461,-80.18786692759296,-0.3074483333333262,0.0,-0.8299311903589114,-0.4536077410126307,-0.3763234493462807,-0.45973248017664864,-0.27121386598896463,-0.188518614187684,59.73596187306514
60.6648,2019-08-20,61.2185,60.2771,61.1077,3039100,-0.4761205721959598,-0.31655427874901776,-0.15956629344694206,59.89631428571429,59.89631428571429,60.36451693157944,60.8406375037754,0.2529221495136893,0.1943893323126905,0.05853281720099879,-0.06926124149783036,7.263908989193785,24.011509622149084,-286.1653240884354,-280.80158517943755,-5.3637389089978456,61.0168,61.0168,61.0168,61.0168,0.0,0.0,0.0,0.0,11.698092195471588,85.43296669976172,84.64846791104051,0.0,12.0,-12.0,60.805876,62.14404556,0.0,0.0,2578.951201905934,63.1723,6.073186226878499,-20.069843030236218,70070.9802059827,97761.1977809453,-1.1664921322410993,60.724301069260505,33.487258633413305,963.0193586766969,59.89631428571429,61.97108756332064,57.82154100810794,6.9278829669197055,0.5917656204645689,0.0,0.0,60.707699999999996,59.9596,61.4558,-2.46459674802373,0.7877957492313895,1.0,1.0,59.7393,62.2943,61.0168,4.265704877619466,0.21048923679060558,0.0,0.0,41.82649980938282,0.0,0.0,0.0,-90.10251067055111,-15.889375698306523,21.048923679060557,6.4983692106979065,-78.95107632093945,-0.5356428571428538,0.0,-0.7825699922464072,-0.5194001912593861,-0.26316980098702114,-0.46736586304160843,-0.31044426539949344,-0.156921597642115,59.93181533972329
61.084,2019-08-21,61.8039,60.3958,61.3767,2886800,-0.4383568662333701,-0.3409147962458882,-0.0974420699874819,59.95875,59.95875,60.36932971133645,60.80768657756982,0.245754026449395,0.2069484421564901,0.0388055842929049,-0.07632490638834262,8.101430064804623,23.949073907863372,-285.42122525023564,-281.3790401882873,-4.042185061948317,61.0168,61.0168,61.0168,61.0168,0.0,0.0,0.0,0.0,33.497683741740246,85.43296669976172,84.64846791104051,0.0,12.0,-12.0,60.805876,62.0959506488,0.0,0.0,2920.546885426533,124.25630000000001,6.012702307408821,-16.166912483059583,-298768.6464540621,41114.07717594424,-1.0462031535078844,60.783134362314826,43.166421955890826,963.0193586766969,59.95875,61.927442142006974,57.99005785799303,6.566821830031387,0.611000087488146,0.0,0.0,60.768254166666665,60.06026666666667,61.47624166666667,-2.330122889685884,0.7630372475973576,1.0,1.0,59.7393,62.2943,61.0168,4.261262951612566,0.256947162426615,0.0,0.0,43.69770795320307,0.0,0.0,0.0,-86.9136008308885,-11.611484486005633,25.6947162426615,22.185257664709706,-74.3052837573385,-0.40857624999999587,0.0,-0.7208905500362633,-0.5596982630147616,-0.1611922870215018,-0.41320323138825804,-0.33099605859724635,-0.0822071727910117,60.10111118503007
59.7313,2019-08-22,61.5033,59.6997,61.4004,2299800,-0.45930374200361257,-0.3645925853974331,-0.09471115660617946,59.929966666666665,59.929966666666665,60.26630975574622,60.72561349774983,0.2497445738976117,0.20383095287810926,0.04591362101950244,-0.08309458698621777,8.844957759679641,23.97785724119671,-285.76426040468004,-281.86628687899764,-3.897973525682403,61.0168,61.0168,61.0168,61.0168,0.0,0.0,0.0,0.0,7.790153970562307,85.43296669976172,84.64846791104051,0.0,12.0,-12.0,60.805876,62.048817635824,0.0,0.0,4954.719816330218,64.525,9.083548838578716,-19.79720468976537,23850.987673130534,38956.19098809253,-1.7346443684599215,60.79240576844385,37.813981046339094,951.9199481949274,59.929966666666665,61.79319541507328,58.06673791826005,6.218020306168297,0.43820762295998716,0.0,0.0,60.77931481481481,60.13855925925926,61.42007037037037,-2.1084658736540125,1.3424545097223202,0.0,1.0,59.7393,62.2943,61.0168,4.263309562995474,-0.01549902152641882,0.0,0.0,36.31962042722626,0.0,0.0,0.0,-84.45468337472337,-13.847996093506364,-1.549902152641882,15.064579256360068,-101.54990215264188,-0.04878888888889321,0.0,-0.7563591630418554,-0.5990304430201803,-0.15732872002167508,-0.5432632124773825,-0.3734494893732736,-0.16981372310410892,59.94659800306314
56.757,2019-08-23,59.2172,56.4485,58.6793,5160000,-0.7298358669859439,-0.4376412417151353,-0.29219462527080864,59.58182000000001,59.58182000000001,59.67895440870834,60.40879027569429,0.32546396165199143,0.26204520291951333,0.0634187587324781,-0.09957908933370088,9.638436710221479,24.326003907863367,-289.913416591223,-284.4630252583163,-5.45039133290669,60.3088,60.75575,60.532275,60.75575,0.0,0.0,0.0,0.0,-159.66197245619304,85.43296669976172,84.64846791104051,0.0,36.0,-36.0,60.805876,62.00262728310752,0.0,0.0,5482.2465341216275,7.768000000000008,9.103428251575474,-43.33022664837029,2372723.082615365,298263.6233911228,-4.825587177217753,60.54006928951618,33.990321594426575,900.0791159031178,59.58182000000001,62.31821889022051,56.84542110977951,9.185348450988906,-0.07252617869383828,0.0,1.0,60.512883333333335,59.88241333333333,61.14335333333334,-2.0837546164411904,3.7232963767770992,0.0,1.0,59.2172,62.2943,60.75575,5.1644948073086745,-0.8997757628936317,1.1620400000000004,0.0,19.64005812753541,0.0,0.0,0.0,-83.23771189612984,-27.006053937067115,-89.97757628936317,-21.944254066447844,-189.97757628936318,-0.03836499999999887,0.0,-1.2081616990757655,-0.7208566942312974,-0.48730500484446815,-1.032149147088183,-0.5051894209162555,-0.5269597261719274,58.53208470253505
57.1526,2019-08-26,57.9199,56.4565,57.5402,2688200,-0.9328358410662858,-0.5366801615853655,-0.39615567948092034,59.297700000000006,59.297700000000006,59.18319219198398,60.11602803305026,0.35930758133077884,0.27260485411877466,0.08670272721200417,-0.12168753188761432,10.43086463619412,24.61012390786337,-292.4597784354863,-286.8346617065333,-5.625116728953003,59.66015,60.1071,59.883625,60.1071,0.0,0.0,0.0,0.0,-158.25565028138124,85.43296669976172,84.64846791104051,0.0,40.0,-40.0,60.805876,61.89121019178322,0.0,0.0,5865.637072599374,64.92060000000001,8.895814966215307,-37.07487701288886,809325.4550099198,349369.80655300245,-4.817487390686665,60.25970769049788,30.88894337291626,900.0791159031178,59.297700000000006,62.46568510097507,56.12971489902494,10.685018477866986,0.05157617390221915,0.0,0.0,60.015853333333325,59.417023333333326,60.61468333333333,-1.9955727253399151,3.4719230276817394,0.0,1.0,57.9199,62.2943,60.1071,7.377014622826857,-0.3345373079736649,1.192976,0.0,19.737733651917097,0.0,0.0,0.0,-82.28715964535459,-23.2934525251365,-33.45373079736649,-41.660403079790505,-133.4537307973665,-0.5063990909090847,0.0,-1.5517256738143719,-0.8870304901479124,-0.6646951836664595,-1.3552299613060097,-0.6751975289942064,-0.6800324323118033,58.185440831883334
56.6858,2019-08-27,57.7379,56.0293,57.6905,2649300,-1.11532942940768,-0.6524100151498284,-0.46291941425785166,59.02533333333333,59.02533333333333,58.69797800860182,59.8133074380095,0.35300990001547145,0.2684716974008347,0.08453820261463674,-0.14779187338721586,11.129335910357645,2.517466666666671,-294.61047629649215,-288.3785958550978,-6.231880441394367,59.56915,60.0161,59.792625,60.0161,0.0,0.0,0.0,0.0,-134.86449413362803,85.43296669976172,84.64846791104051,0.0,44.0,-44.0,60.805876,61.65293158027623,0.0,0.0,9895.590845594887,8.234800000000007,13.81957288491446,-35.23791940533331,1325.35837899421,317729.40217354713,-5.246422478054813,60.013734295324866,28.331821515255186,893.2683182391852,59.02533333333333,62.55575312643946,55.494913540227195,11.962388329664554,0.07568313275609646,0.0,0.0,59.55441666666667,59.14385666666667,59.96497666666668,-1.3787726351110388,4.79305907378537,0.0,1.0,57.7379,62.2943,60.0161,7.719397320924344,-0.3749890264243713,1.2018184000000005,0.0,18.448218327456857,0.0,0.0,0.0,-81.64730083016836,-30.26594475565518,-37.49890264243713,-53.64340324305559,-137.49890264243712,-0.9487700000000032,0.0,-1.8646844275642294,-1.082561277631176,-0.7821231499330534,-1.6586266220300767,-0.8718833476013805,-0.7867432744286962,57.84318292123635
57.3741,2019-08-28,58.1255,56.6542,56.6938,3055900,-1.1957488569753494,-0.7610777835149326,-0.4346710734604168,58.61795,58.842938461538466,58.38355062266308,59.57929947963843,0.36085230080178676,0.2651768653185419,0.09567543548324486,-0.17323106438009184,12.180225895398271,1.9325615384615347,-294.08080432609074,-289.2491363622553,-4.831667963835457,59.56915,60.0161,59.792625,60.0161,0.0,0.0,0.0,0.0,-113.96125163902973,85.43296669976172,84.64846791104051,0.0,44.0,-44.0,60.805876,61.339729053854136,0.0,0.0,9956.138814925054,65.6089,12.872703351452683,-25.08206304885709,759967.0147331258,354582.53655351204,-4.6065237984354,59.80187972047384,33.873078615150646,893.2683182391852,58.842938461538466,62.462601959318306,55.22327496375863,12.302796537415485,0.19765995335188616,0.0,0.0,59.26832,58.746230000000004,59.790409999999994,-1.7617843731693257,3.003514719684366,0.0,1.0,57.7379,62.2943,60.0161,7.7433250601143895,-0.23784127820208964,1.2912565600000008,0.0,26.058193569376797,0.0,0.0,0.0,-79.57887814279118,-30.211203945790484,-23.784127820208962,-31.578920420004184,-123.78412782020895,-1.5521269230769192,-7.943414989243252,-2.0069871036063516,-1.267446442826211,-0.7395406607801405,-1.7875385094271932,-1.055014379966543,-0.7325241294606502,57.77448897787776
58.9166,2019-08-29,59.9924,57.7775,57.8961,3726700,-1.155520786186763,-0.8399663840492987,-0.3155544021374642,58.36811666666667,58.76683571428571,58.2903120653303,59.44583285151706,0.3376979458834787,0.32247851923270354,0.015219426650775136,-0.19325404643454022,13.59064078022912,-0.02423571428570881,-291.9671824104346,-289.70046100879796,-2.26672140163663,59.56915,60.0161,59.792625,60.0161,0.0,0.0,0.0,0.0,-49.123079013892905,85.43296669976172,84.64846791104051,0.0,44.0,-44.0,60.805876,61.05158272954581,0.0,0.0,10021.721930938984,124.52550000000001,12.040318683158407,-12.04448021616322,-5460230.189793716,-92710.75008858238,-3.438366507713797,59.71364454488467,38.847140600186954,893.2683182391852,58.76683571428571,62.29773842331243,55.23593300525899,12.016650772872522,0.35990328878837685,0.0,0.0,59.20741,58.52395,59.89086999999999,-2.3086975093151234,1.5460817019284228,0.0,1.0,57.7379,62.2943,60.0161,7.753352625879726,0.008691071898867551,1.4959509040000007,5.345551142042132,37.371547823925,0.37371547823925,0.0,0.0,-75.18052376109405,-16.836377989560148,0.8691071898867552,-20.137974424253102,-99.13089281011324,-1.9637414285714314,-4.932908820166017,-1.9438213424867072,-1.4027214227583102,-0.541099919728397,-1.6608154305948297,-1.1761745900922005,-0.48464084050262923,57.77453125768431
58.6872,2019-08-30,59.6523,58.0227,59.0036,3164000,-1.091274624900123,-0.8902280322194637,-0.2010465926806594,58.308125,58.71722666666667,58.24914097835641,59.34041560325653,0.679746184954309,0.6853944634358873,-0.005648278481578228,-0.20765486144824113,14.839224388805079,-0.21992666666666594,-290.1536362214617,-290.0595671138377,-0.09406910762396592,59.56915,60.0161,59.792625,60.0161,0.0,0.0,0.0,0.0,-32.88716945755055,85.43296669976172,84.64846791104051,0.0,44.0,-44.0,60.805876,60.786488111182145,0.0,0.0,10257.891093263634,183.2127,11.512344020575231,-8.26811140813993,-424123.471557678,-116383.08733637493,-3.1893058623068464,59.46515470410369,43.13260758588169,897.0592297814335,58.71722666666667,62.148544426724584,55.28590890660875,11.687601594459668,0.3987959269247413,0.0,0.0,59.12198333333333,58.48281333333334,59.76115333333333,-2.1622075714081417,1.3599303263086049,0.0,1.0,57.7379,62.2943,60.0161,7.75990328335216,0.06250548678781434,1.5338358136,5.480907229471941,39.545931863116216,0.9049886988458733,0.0,0.0,-71.10566596405667,-14.742178475340868,7.776109215016996,-5.0463038051017275,-92.22389078498301,-1.8354633333333368,-1.2255160650022345,-1.839007384438061,-1.4899786150942607,-0.34902876934380034,-1.5736605010356544,-1.2556717722808912,-0.31798872875476314,57.78069026120143
58.6397,2019-09-03,58.8137,57.2633,57.3978,2467000,-1.0890820526681537,-0.9299988363092018,-0.15908321635895195,58.20529166666666,58.62635625,58.09747313553234,59.186555188200494,0.734172383940125,0.6793051767312404,0.054867207208884605,-0.21972521260883496,16.145363247584715,0.5670437499999963,-286.00557538478216,-290.0418172578763,4.036241873094127,59.56915,60.0161,59.792625,60.0161,0.0,0.0,36.65839417230876,73.0092418404107,-75.50097805028985,85.43296669976172,84.64846791104051,0.0,44.0,-44.0,60.805876,60.542601062287574,0.0,0.0,10327.671466545644,124.57300000000001,10.874967243010856,-13.448522375548507,2951094.531520458,10131.410090423122,-3.956781146635222,59.17559879955012,43.52590638127701,885.3185355514852,58.62635625,62.02245933734051,55.230253162659494,11.585584725267678,0.2993205425534637,0.0,0.0,58.79317666666667,58.07332666666666,59.51302666666667,-2.4487535486686163,1.5626357342964876,0.0,1.0,57.7379,62.2943,60.0161,7.771931075794935,-0.10416117987885232,1.4595522322399996,5.64365247678679,35.44185210408939,0.811068904164148,0.6965910270830905,0.0,-68.1565160185557,-15.846205016020473,-12.958361774744112,-1.437715123280111,-112.95836177474412,-1.63814,-2.1094990708972925,-1.8400835277625256,-1.5599995976279137,-0.28008393013461186,-1.4939898462112526,-1.3033353870669635,-0.19065445914428913,57.73064994673624
59.7788,2019-09-04,60.4116,59.2646,59.8816,2951100,-0.9153051706896136,-0.9270601031852842,0.011754932495670611,58.21122499999999,58.6639,58.277031114681215,59.19233628537083,0.5794154236515704,0.703146234413556,-0.12373081076198555,-0.22286850141384668,17.29071823264776,1.5816000000000017,-279.0641232205113,-289.3354725879069,10.271349367395601,59.56915,60.0161,59.792625,60.0161,0.0,0.0,48.0704835265405,58.69444926583133,15.613773347476428,85.43296669976172,84.64846791104051,0.0,44.0,-44.0,60.805876,60.31822497730457,0.0,0.0,10526.633359375832,184.3518,10.428061069312053,5.56345402667271,-1809421.5675122347,-180265.14021853503,-1.8675667206416153,59.16401985863768,50.82969617305091,885.3185355514852,58.6639,61.972265786021495,55.3555342139785,11.279051634894705,0.5907850036622432,0.0,0.0,58.69166,57.92989,59.453430000000004,-2.5958372961337335,0.12394160967221236,1.0,1.0,57.7379,62.2943,60.0161,7.766957191731196,0.33506715828285477,1.6284270090159996,5.533772245784586,50.130329081579276,1.0,0.9053525343366737,0.0,-61.248937817980945,11.670352013315405,41.68464163822527,12.167463026166061,-58.31535836177473,-1.1639011764705884,0.12028368027517358,-1.5463237779243189,-1.5572644336871948,0.01094065576287595,-1.2605916575112484,-1.2947866411558207,0.0341949836445723,57.756729261576496
59.8025,2019-09-05,61.1631,59.4149,59.9845,4059700,-0.7567346201857532,-0.8929950065853781,0.1362603863996249,58.14200833333333,58.70562222222222,58.45208786626872,59.20882248645447,0.5139382133906626,0.6987120861195907,-0.1847738727289281,-0.21894966497956436,18.462297957444587,1.5714777777777797,-270.72830549785476,-287.66481093159297,16.936505433738205,58.8612,60.0161,59.438649999999996,60.0161,0.0,0.0,46.2171436913312,55.47387600069449,30.66508302812169,85.43296669976172,84.64846791104051,0.0,44.0,-44.0,60.805876,60.1117989791202,0.0,0.0,10644.239192143521,244.1543,9.95481732296018,6.05271998714805,-841934.5679528452,-307793.0024950104,-1.715902561092742,59.23801137007092,58.0823809564998,885.3185355514852,58.70562222222222,61.93913167966285,55.472112764781585,11.016012896347878,0.6096761563733276,0.0,0.0,58.59119666666667,57.754286666666665,59.428106666666665,-2.856777289466522,0.007890135538266785,1.0,1.0,57.7379,62.2943,60.0161,7.761437197194433,0.3680537266262841,1.6554343081143994,5.390905892062855,51.03143236835219,1.0,0.9370229680547159,0.8463221764914933,-55.53325310073566,12.446225049865843,45.78839590443692,24.838225255972702,-54.21160409556308,-0.5656855555555609,-1.3786921844785036,-1.2780774695508859,-1.501427040859933,0.2233495713090472,-1.0601751779411064,-1.2478643485128778,0.18768917057177137,57.783946169101895
60.467,2019-09-06,60.5382,58.1255,59.1143,3794000,-0.72673279719627,-0.8597425647075565,0.13300976751128646,57.96270833333333,58.67508947368422,58.40184357915046,59.12857637634673,0.607547914944033,0.6947553756474026,-0.0872074607033696,-0.21418462158098645,19.683849533659288,1.7207105263157843,-263.1448459530318,-284.69052530512727,21.545679352095476,58.8612,60.0161,59.438649999999996,60.0161,100.0,0.0,46.2171436913312,60.60318881897935,-14.42025735674623,85.43296669976172,84.64846791104051,0.0,44.0,-44.0,60.805876,59.9845,0.0,0.0,10788.686485141625,183.6873,9.549858752999189,-5.949975696730245,1760359.278614778,-113761.4989685157,-3.028134842894108,59.20261105531327,50.762139183361775,885.3185355514852,58.67508947368422,61.83300198931838,55.51717695805005,10.764065445696474,0.4129821565728449,0.0,0.0,58.43035,57.46134000000001,59.39936,-3.316803681648312,0.6572997182691627,1.0,1.0,57.7379,62.2943,60.0161,7.765476015240748,0.08506715828285474,1.6022208773029596,5.387970271285218,43.73111140011847,0.7759484083101484,0.9253161361033827,0.9225638794982575,-51.82821303687809,6.242094515735365,10.582935153583609,32.68532423208194,-89.4170648464164,-0.3809115789473765,-3.5695147908575473,-1.2290720354413704,-1.4469560397762207,0.21788400433485022,-0.801720835883472,-1.1586356459869966,0.35691481010352466,57.792739860649206
63.2831,2019-09-09,63.6153,60.9495,61.1077,5133600,-0.4696688869088419,-0.7817278291478136,0.3120589422389717,58.00885,58.78881,58.793790720819615,59.26345960772846,0.540363882891315,0.7006661606596767,-0.1603022777683617,-0.19948283711746154,21.0927452051054,0.910890000000002,-249.76909374558005,-279.94711589513764,30.17802214955759,59.4228,60.0161,59.71945,60.0161,100.0,0.0,50.520160216123536,47.96016907948315,110.015346189441,85.43296669976172,84.64846791104051,0.0,44.0,-44.0,57.7379,59.9845,1.0,0.0,10859.954420378504,246.97039999999998,9.103023541203763,20.430231459945485,-10045956.819435183,-723694.1838538547,0.04644472029244984,59.265978618545056,50.91756622203751,885.3185355514852,58.78881,62.022484396039275,55.55513560396072,11.00098605853487,0.8340920784489767,0.0,0.0,58.80793333333334,57.64195333333333,59.973913333333336,-3.9653833553069404,-0.41835480311268797,1.0,0.0,57.7379,62.2943,60.0161,7.750454550789507,0.7048547098586603,1.990978789572663,5.3584354010698005,57.92716629543607,1.0,0.9253161361033827,0.9292184134204936,-43.399401595962175,15.09800812362947,87.68873720136526,48.02002275312861,-12.311262798634754,0.10657249999999152,0.9167856042969862,-0.7925100728469674,-1.31606684639037,0.5235567735434026,-0.21430299064567224,-0.9697691149187319,0.7554661242730596,58.18215947193863
63.3622,2019-09-10,65.1737,63.0616,63.5916,4342700,-0.09442657671886678,-0.6442675786620242,0.5498410019431574,58.289008333333335,58.99227619047619,59.45037676377044,59.54480334048931,0.45887048480182224,0.7587178120414065,-0.2998473272395843,-0.1714377647323056,22.431407441512825,-2.416249999999998,-228.84443957887495,-272.6397784820691,43.795338903194164,60.85855,60.66475,60.76165,60.66475,100.0,0.0,57.740007010348315,39.99862092787192,196.20736579172345,85.43296669976172,84.64846791104051,80.0,44.0,36.0,57.805296000000006,59.9845,0.0,0.0,10965.769014032508,310.33259999999996,9.015465912678666,36.629813054238966,-5046638.871440688,-1089173.458971474,2.242152685411116,59.505397418331775,58.734462604079624,885.3185355514852,58.86475,62.40989276976259,55.31960723023741,12.045044852012763,1.0919155126552278,1.0,0.0,59.47161000000001,58.185390000000005,60.75783,-4.325492449254346,-0.8955583026231928,1.0,0.0,57.7379,63.5916,60.66475,9.944321516697169,0.9094589746655959,2.214300910615396,5.330169815627731,65.0326890688474,1.0,0.9253161361033827,0.9253161361033827,-33.401653896534825,20.094312128171104,90.94589746655959,63.07252327383616,-9.054102533440414,1.1578361904761891,5.631351581331227,-0.15858071808368632,-1.0845696207290332,0.9259889026453468,0.25514522181310495,-0.7247862475723645,0.9799314693854695,58.997026641811786
64.0979,2019-09-11,65.4585,63.1249,63.9792,3585300,0.20569234524442948,-0.47427559388073354,0.679967939125163,58.845375,59.18012272727273,60.015688030882686,59.809995685638256,0.47924790239876713,0.7750488613935821,-0.29580095899481496,-0.13502925471512026,23.69864155274042,-2.525720000000007,-207.1748318595436,-262.9835593191194,55.808727459575834,61.39645,60.85855,61.1275,60.85855,100.0,0.0,56.833941541098355,37.66037443606238,186.108028939182,85.43296669976172,84.64846791104051,84.0,44.0,40.0,58.03674816,59.9845,0.0,0.0,11103.900356836537,374.43049999999994,9.0359515011944,31.97661077077624,-775907.8846576926,-1123254.8331288763,2.3064929030713097,59.741499072333234,59.04595091583432,885.3185355514852,58.982220000000005,62.90808588492272,55.05635411507729,13.312031608585484,1.027613540736319,1.0,0.0,60.17510666666666,58.74569666666666,61.60451666666667,-4.750834952127506,-0.5318219871602001,1.0,0.0,57.7379,63.9792,60.85855,10.581663423316373,0.86312146507939,2.2325608195538567,5.306844660159026,65.22225904569703,1.0,1.0,0.950210757402255,-25.86977549126539,18.945942883040352,86.31214650793902,88.31559372528795,-13.687853492060992,1.871444090909101,11.827417911901989,0.3439096473531779,-0.7988737671125911,1.142783414465769,0.7133506248684555,-0.43715887308420054,1.150509497952656,59.818980260333305
63.03,2019-09-12,63.6549,61.701,62.6661,3200200,0.32489671606759885,-0.3144411318910671,0.639337847958666,59.28241666666667,59.28972608695653,60.274966795362275,59.950070079294676,0.5661215471053701,0.7960787892218855,-0.22995724211651536,-0.09890952401333454,24.847173993438194,-3.100840000000005,-187.33040834962034,-251.35725109014007,64.02684274051973,61.39645,60.85855,61.1275,60.85855,100.0,0.0,56.833941541098355,50.034564391178435,105.29954632438937,85.43296669976172,84.64846791104051,84.0,44.0,40.0,58.3932952704,59.9845,0.0,0.0,11289.968894457896,311.40049999999997,8.565001181777214,14.587321089236816,2444703.2841503997,-950336.8119519284,0.8847335497891693,59.88177983030929,58.67575397786483,865.3485227233974,59.130140000000004,63.22791635182791,55.0323636481721,13.860194993037064,0.8136896427806763,0.0,0.0,60.72672333333334,59.34160333333333,62.11184333333333,-4.561813725390641,0.1483060432790416,1.0,1.0,57.7379,63.9792,60.85855,10.55519232662056,0.6349798920096775,2.0623047375984713,5.2806624393730015,57.65089945989825,0.8381290247851897,0.9460430082617298,0.9571197147883708,-21.4392804364962,16.01502684349195,63.49798920096775,80.25201105848879,-36.50201079903225,2.273160869565217,9.289452941645342,0.5419455150558872,-0.5307099106788955,1.0726554257347827,0.921798960937618,-0.1653673062798368,1.087166267217455,60.00920820908919
62.8006,2019-09-13,64.1453,61.796,63.4176,4123500,0.4221662747915289,-0.16711965055454792,0.5892859253460768,59.762975000000004,59.394154166666674,60.50897190376808,60.08680562897655,0.4604541504844544,0.7388494563710949,-0.27839530588664047,-0.06402910021119908,25.883399135457616,-2.6408750000000083,-167.88077249075067,-237.7713773422833,69.89060485153263,61.39645,60.85855,61.1275,60.85855,100.0,0.0,55.36445395514835,44.40284346366806,107.72601454279778,85.43296669976172,84.64846791104051,84.0,44.0,40.0,58.728449554176,59.9845,0.0,0.0,11632.658055568241,374.2011,8.620400276741508,13.355711933631548,-719523.8819374442,-1171211.5951342718,0.9814265855584422,60.24148145688967,65.70339922807023,866.6808854024257,59.29507500000001,63.54056925008445,55.04958074991557,14.31988828780279,0.7945387336174399,0.0,0.0,61.18315333333332,59.934893333333335,62.43141333333334,-4.080404268146587,0.2545196246508493,1.0,1.0,57.7379,63.9792,60.85855,10.52583203579723,0.6502010799032252,2.1005042638386247,4.827805015360995,58.00120232706433,0.8456182829674419,0.8945824359175437,0.9468751480597577,-17.904631948145088,12.987496860817817,65.02010799032251,71.61008123307643,-34.979892009677485,2.9323399999999964,10.29229349643847,0.7025939727904946,-0.2840491339850175,0.9866431067755121,1.0435779992431427,0.07642175482475907,0.9671562444183835,60.15456143276729
67.7446,2019-09-16,68.8204,65.8382,68.0214,11888900,0.81601830769727,0.02950794109581567,0.7865103666014543,60.528308333333335,59.651916,61.32885314934222,60.51283484164495,0.4509536314466043,0.7532028899692794,-0.30224925852267515,-0.018158186771428966,26.85683875467491,-1.8498149999999924,-141.23266179199393,-221.6854980541957,80.45283626220177,64.2165,62.87965,63.548075,62.87965,100.0,0.0,61.040322155123675,30.84395908089048,215.69109557001445,85.43296669976172,84.64846791104051,96.0,44.0,52.0,59.04349458092544,59.9845,0.0,0.0,12070.615448359227,441.9457,8.851731270648013,50.56735624596991,-5471905.583618518,-1619870.9550363033,5.412736413379017,61.01790639561394,72.83968724231138,866.6808854024257,59.627314999999996,64.74034904536876,54.51428095463123,17.14997244255846,1.1073580720262994,1.0,0.0,62.049866666666674,60.786576666666654,63.31315666666668,-4.071854035678869,-0.9993917997187098,1.0,0.0,57.7379,68.0214,62.87965,17.24629056330978,0.7876987407011231,2.5928938374547625,4.292878638547651,69.54477399836458,1.0,0.8945824359175437,0.9117359600322724,-9.805806116763776,24.260737861220793,78.76987407011232,69.09599042046754,-21.230125929887684,3.8373300000000015,16.21062516106484,1.3485045112044327,0.04246159505287253,1.30604291615156,1.7616289301311008,0.4134631898860274,1.3481657402450733,60.98976376404495
64.2482,2019-09-17,67.2304,63.9397,66.7637,4902200,0.9638451903704564,0.21637539095074382,0.7474697994197126,61.04182500000001,59.81683076923077,61.73052189559726,60.76667670522681,0.4980077888176725,0.7667008188583642,-0.26869303004069167,0.026930573422634763,26.7415413082472,-1.789324999999991,-121.78588367270314,-204.21013810443924,82.4242544317361,64.2798,62.87965,63.579724999999996,62.87965,100.0,0.0,58.1952420472417,37.41385332874631,143.09141131560196,85.43296669976172,84.64846791104051,96.0,44.0,52.0,59.7617270144514,59.9845,0.0,0.0,12912.394896698626,377.6975,9.308711201603158,25.918418539402797,1034287.0228271064,-1546087.979004295,3.5600854037827636,61.64161598381334,71.4702796258578,841.6894114414653,59.81202499999999,65.25716488355671,54.36688511644327,18.207508886571624,0.8790237797622793,0.0,0.0,62.86516666666667,61.69679666666667,64.03353666666666,-3.717066419930473,0.040157084941697126,1.0,1.0,57.7379,68.0214,62.87965,17.193031000037195,0.6030826080614577,2.4728244537092867,3.6455271348480864,61.05661413861832,0.8048096728689175,0.8834759852787863,0.8908802857046245,-5.796405488284777,20.909184033498377,58.753625238735246,67.51453576639004,-41.246374761264754,4.131690384615389,10.665397429795332,1.5861410276654997,0.351197481575398,1.2349435460901017,1.8505123648011994,0.7008730248690619,1.1496393399321376,61.28687126247781
64.3273,2019-09-18,64.3827,63.03,63.2831,3876100,0.9961113213495025,0.3723225770304956,0.6237887443190069,61.4591,59.87403076923077,61.93044160396691,60.93433028261741,0.5976467350168585,0.850640611023189,-0.2529938760063305,0.06648817105616951,26.398802783835627,-2.6863699999999895,-105.58057797535558,-185.86039060193934,80.27981262658376,64.2798,62.87965,63.579724999999996,62.87965,100.0,0.0,58.1952420472417,52.85857824862974,68.18433219344128,62.64235,62.64235,92.0,40.0,52.0,60.42250085329529,59.9845,0.0,0.0,13006.335218943079,313.3702,8.561277975974907,13.855995203773823,5408744.561018433,-1214032.439983916,2.644870837402248,62.079952979852294,64.32039906017499,841.6894114414653,59.94966999999999,65.57119803394237,54.328141966057615,18.75415839300659,0.7739762197574399,0.0,0.0,63.23643333333333,62.011103333333324,64.46176333333332,-3.8753925084326375,0.5842358113052494,1.0,1.0,57.7379,68.0214,62.87965,17.153555640923457,0.5146205085817085,2.2912020083383586,3.175274317187019,57.438953337406126,0.6450210131997329,0.8166102286895501,0.8648895499619601,-3.7599868923189894,11.91497655027432,45.79102273097519,61.10484067994093,-54.20897726902481,3.860098888888892,8.629898298424584,1.6347292515228657,0.6079038355648916,1.0268254159579742,1.9078087395578487,0.9422601678068192,0.9655485717510295,61.3694290173221
64.5567,2019-09-19,65.237,64.0504,65.1737,4099100,1.091438787827684,0.5161458191899333,0.5752929686377508,62.02469166666666,59.999988461538464,62.25658904951047,61.16515026168278,0.6328061747719547,0.8397758037345217,-0.206969628962567,0.10379170621185746,26.111655413048478,-0.8677999999999955,-89.33288693569274,-166.5479507111239,77.21506377543115,65.81835,62.87965,64.34899999999999,62.87965,100.0,16.092172665288384,61.5333073753207,46.97668665785113,89.32013428330995,62.64235,62.64235,88.0,36.0,52.0,61.030412785031665,59.9845,0.0,0.0,15362.093849748835,377.92690000000005,10.185939849124626,21.287089700377518,-134573.3053269409,-833628.3768077178,3.6899867612480373,62.51954983458802,64.799687795211,841.6894114414653,60.1324,66.0308241400564,54.2339758599436,19.618123141788452,0.8321226065613634,0.0,0.0,63.69972,62.58592,64.81352000000001,-3.497032640017899,0.3425749685760512,1.0,1.0,57.7379,68.0214,62.87965,17.101429512209716,0.6138474254874309,2.2827818075045223,2.816972002560099,60.2817278494925,0.7283796919926954,0.7260701260204486,0.8087187799962616,-1.1410273755619922,9.261254941574345,56.87305190221225,53.80589995730757,-43.126948097787746,4.132394285714291,11.852443013238839,1.7844128284786074,0.8432056341476348,0.9412071943309726,1.9588404008639246,1.1455762144182404,0.8132641864456842,61.52714896519183
64.0742,2019-09-20,64.976,63.3464,64.8573,4754700,1.0975279562897597,0.6324222466098987,0.4651057096798611,62.36484166666667,60.1770576923077,62.424252272662706,61.326724316372946,0.632559755460249,0.8175469533254898,-0.18498719786524076,0.1354261654333219,25.82392719837949,-0.899835000000003,-73.29570969348359,-146.9397969275576,73.64408723407402,65.83815,62.87965,64.3589,62.87965,100.0,15.793464596882512,58.87753090911204,46.34522715247136,70.81977771475535,61.5547,61.5547,84.0,32.0,52.0,61.58969176222913,59.9845,0.0,0.0,17057.334162301424,313.8527,9.873349311083889,11.802043057466504,53482.82147884952,-799513.6415908231,2.985725167253317,62.89774775632665,57.7730011306403,832.4381133128855,60.314735000000006,66.37170920079532,54.25776079920469,20.08455877587895,0.7502623339225979,0.0,0.0,64.21311,63.22982999999999,65.19639000000001,-3.062552179765184,0.9407239036693469,1.0,1.0,57.7379,68.0214,62.87965,17.04973088251154,0.5453882433023777,2.1470636267540706,2.737345716212103,57.43157761824575,0.6448047349821876,0.6727351467248718,0.7384718338116235,0.14222580420599498,5.851263636948011,49.227277170194554,50.630450601127336,-50.772722829805446,4.24214068965518,6.887416771563465,1.7896405988159763,1.0324926270813033,0.757147971734673,1.9146565634147628,1.299392284217545,0.6152642791972178,61.662545125922065
63.3859,2019-09-23,64.0742,63.0537,63.2831,3749100,1.0664419434746932,0.7192261859828577,0.34721575749183553,62.66807500000001,60.35230384615385,62.52109038456075,61.45464844108606,0.6173026918093297,0.8364088929447859,-0.2191062011354562,0.16063864280826673,25.52817812203416,-2.5194950000000063,-59.28933961244165,-128.1003413757317,68.81100176329004,65.83815,62.87965,64.3589,62.87965,100.0,15.140029677260827,58.87753090911203,51.53987914811062,44.59552758035862,61.0168,61.0168,80.0,28.000000000000004,52.0,62.1042284212508,59.9845,0.0,0.0,17157.48083959886,250.46680000000003,9.473460080798455,7.465600773542686,1545109.8745935701,-899941.1170856006,2.6928426525405587,63.274897622078164,57.120644780171965,828.5917284233467,60.64499500000001,66.54088178977982,54.7491082102202,19.443935281979353,0.7042699500417262,0.0,0.0,64.37106,63.55943,65.18269000000001,-2.5217232712961524,1.311552061900125,0.0,1.0,57.7379,68.0214,62.87965,16.95688160251311,0.5169251713910631,2.0051372640786638,2.6170988409381715,56.24096744345584,0.4846215059844836,0.6192686443197889,0.6726913056883697,0.841014368393641,10.573896181953957,34.71970354017187,46.94001087085957,-65.28029645982814,3.2254833333333295,6.124389673297432,1.7353316153082308,1.173060424726689,0.5622711905815418,1.7711259594465647,1.393739019263349,0.3773869401832157,61.70059445943865
62.144,2019-09-24,63.1012,61.6061,62.2943,4323900,0.9144555580101894,0.7582720603883241,0.15618349762186534,62.958124999999995,60.4451,62.38032263308987,61.46586707507968,0.686066037735849,0.8101886792452826,-0.12412264150943364,0.17541172857126605,25.345945320523086,0.047024999999997874,-49.61683844314006,-110.59389766279797,60.97705921965791,65.5613,62.87965,64.220475,62.87965,96.57449625312492,14.138442613557954,58.87753090911203,57.575802982885406,12.715958525369771,61.0168,61.0168,76.0,24.0,52.0,62.577602147550735,59.9845,0.0,0.0,17325.629303101152,188.32280000000003,9.261300273298875,-6.452292822677708,1273635.7653192591,-679722.7361690653,1.2661277349385742,63.439551552848435,50.464471925298916,809.5687466464543,60.902475,66.48569483513995,55.31925516486006,18.334952184258345,0.5630124749496234,0.0,0.0,64.21021666666667,63.47610666666666,64.94432666666667,-2.286583157976173,2.2736556283572282,0.0,1.0,57.7379,68.0214,62.87965,16.885192268458706,0.37615597802304623,1.8805635376707972,3.0903123615059958,50.648586950482006,0.2679772978373684,0.4658011796013464,0.5859349902153357,-0.08371545324986973,2.162492302074701,14.270632884327494,32.73920453156465,-85.7293671156725,2.333458387096776,5.988077521913782,1.4877453154499474,1.2359974028713407,0.2517479125786066,1.4817838833039074,1.4113479920714607,0.07043589123244676,61.69879014589304
60.7281,2019-09-25,62.0412,60.206,61.4875,3236200,0.673267870731614,0.7412712224569822,-0.0680033517253682,62.896166666666666,60.44358076923076,62.045811458768355,61.37254358803674,0.7582754824205741,0.8153715314174949,-0.05709604899692078,0.17767495438779285,25.304170877186955,1.9502900000000096,-43.31426145602627,-94.59210356350974,51.277842107483465,65.0313,62.87965,63.955475,62.87965,54.23860223783394,13.462740279171088,58.87753090911202,64.65724101814962,-22.670810839050652,61.0168,61.0168,72.0,20.0,52.0,62.577602147550735,68.0214,0.0,1.0,17667.459299976712,127.59470000000003,6.2603218758711705,-17.67702424943799,851045.1998333643,-558795.6098986219,-0.11401827024596889,63.5084553612396,43.97662821393196,791.1699646722717,61.11130999999999,66.24408157757873,55.97853842242125,16.79810685641901,0.4118108037425032,0.0,0.0,63.915953333333334,63.274403333333325,64.55750333333333,-2.0074800313286487,3.3913984360792697,0.0,1.0,58.1255,68.0214,63.07345,16.193238207461107,0.2102385836558576,1.736017183903718,3.8195360838986963,45.89516835022789,0.08383378150516521,0.2788108617756723,0.4546268952322691,-2.203131837177772,-43.997841688613434,-4.4392773145178595,14.850353036660513,-104.43927731451787,1.9187624999999997,-1.2198623450561488,1.0970180334237494,1.2082015289818226,-0.11118349555807328,1.058529795193933,1.3407843526959553,-0.28225455750202233,61.64066463952058
59.3991,2019-09-26,60.4512,58.877,60.119,4100200,0.37061349613180283,0.6671396771919463,-0.2965261810601435,62.54745,60.38973076923077,61.558302003573225,61.18768850744142,0.7765806134052988,0.856058523006941,-0.07947790960164214,0.1668492846258552,25.243642780647377,1.9024499999999946,-37.76478365465844,-80.13477147061059,42.36998781595215,64.2363,62.87965,63.557975,62.87965,27.11930111891697,13.41234723031427,58.87753090911202,76.09648707511495,-71.33152062816974,61.0168,61.0168,68.0,16.0,52.0,62.577602147550735,67.901796,0.0,0.0,18171.010610693145,68.19560000000004,6.606389661291664,-26.42907848523257,827296.7940591703,-625442.9302240225,-1.4252065886859926,63.550822430105185,44.00020989834984,773.7055112448816,61.22245,66.05165262507178,56.39324737492823,15.775920842997222,0.2571597029473222,0.0,0.0,63.63012666666666,63.05423666666667,64.20601666666667,-1.810117408745274,4.626766106953287,0.0,1.0,58.8137,68.0214,63.41755,15.039744407484513,0.006874680973533588,1.5869354655133459,4.6437826400484825,41.877533764739766,0.0,0.11727035978084448,0.2872941337192877,-5.1394315196399525,-47.79367756346718,-20.794694988243343,-3.6544464728112267,-120.79469498824334,0.9786121212121159,-6.635733949027611,0.605699455515026,1.0877011142884634,-0.48200165877343737,0.5439401501195148,1.1814155121806673,-0.6374753620611525,61.53672000988845
59.3121,2019-09-27,59.6839,58.1334,58.5369,3422300,0.06994908872588468,0.547701559498734,-0.4777524707728493,62.13149166666667,60.30271538461538,61.03139400302349,60.96144491429761,0.9776433264986514,0.8537553076413877,0.12388801885726364,0.1450537832021076,25.426713606456197,0.4607549999999989,-33.231507878223475,-68.13464325796944,34.90313537974597,63.2238,62.87965,63.051725,62.87965,13.559650559458484,13.62844848456741,58.87753090911203,82.04146380434246,-103.3952858289725,61.0168,61.0168,64.0,12.0,52.0,62.577602147550735,67.60377216,0.0,0.0,18272.05319430256,8.88350000000004,6.632796489665938,-28.95413549591364,2271679.6404106338,254388.24547925018,-2.174301779677382,63.34969549982531,37.33824778358142,763.9338275965691,61.240245,66.02091872092053,56.459571279079476,15.612849755648526,0.17506201203354935,0.0,0.0,63.19663666666668,62.57881666666667,63.81445666666667,-1.9552306343729002,4.597663289199648,0.0,1.0,58.8137,68.0214,63.41755,15.035374205312213,-0.07388381463340414,1.5089319189620112,5.59883633475216,39.77927331137502,0.0,0.027944593835054998,0.14134193846385723,-8.131166631059312,-49.51317705303223,-18.59670164917541,-14.610224650645529,-118.59670164917542,-0.10677058823529251,-7.9073392591512945,0.11474316073745022,0.8931095235782609,-0.7783663628408106,0.12102014025423882,0.9693364377953817,-0.8483162975411429,61.36523494672063
58.7109,2019-09-30,59.2251,58.3629,58.8375,3159100,-0.14810364173431623,0.408540519252124,-0.5566441609864402,61.853316666666665,60.25130000000001,60.6208564640968,60.76896010583112,1.1571540121331967,0.8212548110021193,0.3358992011310774,0.11736377667531223,25.501423952116905,0.5387449999999916,-36.159027175420796,-58.62054809160473,22.461520916183936,62.1994,62.87965,62.539525,62.87965,6.779825279729242,13.986971337299439,55.61044639068734,81.10478640025597,-102.3292756762118,61.0168,61.0168,60.0,8.0,52.0,62.577602147550735,67.1285798304,0.0,0.0,18474.542180680266,67.59440000000004,6.605593686897513,-22.89295163221168,52220.55870375255,618592.4904895674,-1.9425219156061233,63.00348518042107,36.66034637210828,766.9496982222922,61.25725500000001,65.9942358475336,56.52027415246641,15.46586064796274,0.19449369829022958,0.0,0.0,62.32148666666667,61.74480666666667,62.89816666666667,-1.8506618851518613,3.932221220318606,0.0,1.0,58.8137,68.0214,63.41755,15.031199161634001,-0.04895902342604491,1.4672087270658096,6.368291616585135,40.765732924180725,0.033141038787796465,0.011047012929265415,0.052087322181721595,-10.2581345135383,-71.70397447133091,-9.801848504484774,-16.3977483806345,-109.80184850448478,-0.9300332352941183,-5.410123012592984,-0.24371593898659596,0.6657444310652896,-0.9094603700518855,-0.29178104155600226,0.7171129419251049,-1.0088939834811073,60.566572188684006
56.6226,2019-10-01,59.1618,56.4802,59.1618,4155300,-0.46744177936855635,0.23334405952798792,-0.7007858388965442,61.410333333333334,60.25251923076924,59.983832392697295,60.45127417206585,1.1929698529815265,0.8097689709704602,0.3832008820110663,0.0806464663028863,25.448738093398617,4.620099999999994,-40.5212039020299,-51.3917287501241,10.870524848094199,62.16775,62.87965,62.5237,62.87965,3.389912639864621,14.152635368818283,54.65688410220384,75.95477020326496,-120.71654049301883,60.532275,60.75575,56.00000000000001,4.0,52.00000000000001,62.577602147550735,66.496301443968,0.0,0.0,18474.542180680266,10.971800000000037,6.560133238875117,-34.85158268761001,0.0,674014.4822508311,-3.769082436416435,62.60853573853874,29.664213725782304,742.2090462525802,61.21810000000001,66.09729774963058,56.33890225036943,15.940376292732303,0.014479608829266294,0.0,0.0,61.550486666666664,61.02047666666666,62.08049666666667,-1.7221959685561252,5.283199059137204,0.0,1.0,59.1618,68.0214,63.5916,14.472190414272902,-0.302677321775249,1.4003778543592282,7.415231868995707,35.61209444652009,0.0,0.011047012929265415,0.016679539897861907,-13.62058769499869,-91.07533277472895,-30.267732177524902,-19.55542744372835,-130.2677321775249,-1.546021764705877,-8.602174898051647,-0.7732538077494456,0.3779447833023426,-1.1511985910517883,-0.8882176265226585,0.3960468282355522,-1.2842644547582107,59.480549364091374
55.2145,2019-10-02,57.1842,54.9535,56.4248,4289200,-0.8340965392886162,0.019855939764667097,-0.8539524790532833,60.503275,60.19471153846154,59.209935101513096,60.04403164080171,1.1799634998590445,0.8845695406818295,0.295393959177215,0.03441165535095044,25.58849631424617,2.937155000000004,-46.82842286702752,-46.669010520272415,-0.1594123467551043,61.02074999999999,62.6028,61.811775,62.6028,1.6949563199323106,14.992349881027257,54.656884102203826,92.8822703281619,-163.68099273719497,59.883625,60.1071,52.0,100.0,-48.0,62.577602147550735,65.7628512995712,0.0,0.0,18474.542180680266,-44.242699999999964,6.6410714324565925,-41.91506761080862,3242144.038250822,730974.536115147,-5.261569664684044,62.193067821494296,30.132734816968863,722.1466075410704,61.002545,66.54389186063777,55.461198139362224,18.167592386966064,-0.04580999458530497,0.0,1.0,60.81271,60.31672,61.30870000000001,-1.6312050556536821,6.406580777838194,0.0,1.0,57.1842,68.0214,62.6028,17.765160453551573,-0.2058373011478978,1.3307400689233047,8.61076860732706,32.07136013116789,0.0,0.011047012929265415,0.011047012929265415,-17.55482668855133,-106.34170680107694,-20.58373011478978,-20.217770265599807,-120.58373011478979,-2.4246858823529536,-16.53249936966685,-1.3891414625160223,0.02452753413866965,-1.413668996654692,-1.5387653437973483,0.009084393828972137,-1.5478497376263205,58.23590156933041
56.0372,2019-10-03,56.235,54.6608,54.7083,3556500,-1.1352055786642907,-0.21115636392112447,-0.9240492147431663,59.73003333333333,60.14207692307692,58.510068162818776,59.64527374148307,1.3694368791423315,0.8708825952572102,0.49855428388512124,-0.01722319847633696,25.629755467416533,2.2651599999999945,-53.658058881839096,-44.487049318978585,-9.171009562860512,59.75905,62.1282,60.943625,62.1282,0.8474781599661553,16.068368727081257,54.656884102203826,101.63204331094326,-164.56064665107,59.792625,60.0161,48.0,100.0,-52.0,62.577602147550735,64.73341314362266,0.0,0.0,18474.542180680266,-100.27989999999997,6.61425764012917,-38.270356300693074,3631270.111640113,1041745.5356564011,-5.560041799124974,61.66769550506045,23.124595680020875,722.1466075410704,60.76484000000001,66.93087056768292,54.5988094323171,20.29473151803875,0.005026780762960109,0.0,0.0,59.85081,59.208479999999994,60.493140000000004,-2.146437115888673,4.539987233976273,0.0,1.0,56.235,68.0214,62.1282,19.39674324823368,-0.13356071404330394,1.3258160620309742,9.716789292101593,31.42623803180868,0.0,0.0,0.007364675286176905,-20.895615604307828,-85.19522121428848,-13.356071404330393,-21.402511232215016,-113.3560714043304,-3.268953823529415,-14.511954231877846,-1.9032615787539917,-0.3610302884398627,-1.542231290314129,-1.928819136697606,-0.3784963122763435,-1.5503228244212623,56.77792550415003
56.1005,2019-10-04,56.496,55.0088,55.9344,2525300,-1.3304197197288303,-0.43500903508266564,-0.8954106846461647,59.0616,60.07879230769231,57.97141152238512,59.30183124211395,1.624052613740438,0.9360789206106523,0.6879736931297857,-0.06914909581200837,25.246732409650726,3.441394999999993,-58.5059354612448,-44.400004413290034,-14.105931047954769,59.26465,62.1282,60.696425000000005,62.1282,0.42373907998307764,16.396323222938328,59.32763167815136,90.2247530723064,-134.4926645454033,59.792625,60.0161,44.0,96.0,-52.0,62.577602147550735,63.54363530351549,0.0,0.0,18474.542180680266,-44.17939999999997,6.716324273151086,-30.01416625773693,-744338.6066077908,1379428.8911571673,-5.202875895954878,60.806466074577365,20.96125122261175,722.1466075410704,60.609005,67.17832543227456,54.039684567725445,21.677704269438372,0.07376070647379047,0.0,0.0,58.99279333333334,58.306173333333334,59.67941333333333,-2.3278097584574944,3.4011631858475893,0.0,1.0,56.235,68.0214,62.1282,19.446615234815354,-0.10403515916649686,1.3767544558278768,10.42351804091626,33.14802720847048,0.05810892073914985,0.01936964024638321,0.010138884391882838,-23.154050244164267,-66.62427697090499,-11.646262121629437,-15.195354546916528,-111.64626212162945,-3.7359702941176494,-12.726003490401396,-2.243471562112598,-0.7375185431744098,-1.505953018938188,-2.2087289561976022,-0.7445428410605952,-1.464186115137007,56.154973121333626
55.1829,2019-10-07,56.5118,55.1591,56.4802,3736000,-1.4562140499676772,-0.639250038059668,-0.8169640119080093,58.32065833333334,59.97808461538462,57.538748211248944,58.99496226121662,1.4651700183861684,0.9133775459833012,0.5517924724028672,-0.11849854071620906,24.858130859036415,3.0269150000000025,-66.30832277115212,-46.25461378306915,-20.053708988082967,58.86125,62.1282,60.494725,62.1282,0.21186953999153882,16.412323140994427,56.603203043582816,79.16897658749878,-110.89719302829778,59.792625,60.0161,40.0,92.0,-52.0,62.577602147550735,62.52042636102332,0.0,0.0,18474.542180680266,11.003500000000024,10.526377053608504,-24.541572525203076,-16079.763839884023,1304402.6921095252,-5.0521002042473695,60.09491346993365,27.597561639090074,724.1197215721603,60.319485,67.30073053021164,53.33823946978836,23.147563445581927,0.1304108645321088,0.0,0.0,58.250796666666666,57.640126666666674,58.86146666666667,-2.0966923542504876,3.031397208530529,0.0,1.0,56.235,68.0214,62.1282,19.539954626602,-0.09128317382746191,1.3893790102450891,11.037220828242434,33.91974432437718,0.08641358397736763,0.048174168238839084,0.022514602828407393,-24.803122323117922,-44.67438479392662,-12.03642587848342,-12.34625313481441,-112.03642587848343,-4.094478823529414,-13.881724392041258,-2.46837016950682,-1.0836888684408919,-1.384681301065928,-2.5319966597284616,-1.1020336047941686,-1.429963054934293,55.82808309730975
54.3681,2019-10-08,55.175,53.8777,54.4947,5544600,-1.6403957725198524,-0.8394791849517049,-0.8009165875681474,57.531600000000005,59.81866153846154,56.975510024902945,58.6159057974228,1.3263404763436955,0.8359467170037964,0.49039375933989904,-0.16800072193025026,24.460469668254746,3.19341,-73.97356757195115,-49.66120335150525,-24.3123642204459,57.647,61.5982,59.6226,61.5982,0.10593476999576941,16.91041218646398,56.603203043582816,91.15800298313785,-123.59109216145089,59.792625,60.0161,36.0,100.0,-64.0,62.577602147550735,61.64046667048005,0.0,0.0,18474.542180680266,-43.364599999999975,10.643404613613061,-30.988102641602676,2078572.444135429,1066533.2551893105,-6.315124498334839,59.457300505438845,28.229897134595276,707.2977101321156,59.86029,67.25554718441218,52.46503281558782,24.708390769280207,0.09551170089052596,0.0,0.0,57.46899,56.87098000000001,58.06700000000001,-2.0811571597134337,3.5027006237354055,0.0,1.0,55.175,68.0214,61.5982,21.460637761694777,-0.10098549009839329,1.3168811092205803,11.770238479597396,30.66919538155524,0.0,0.048174168238839084,0.038572658908020425,-27.137502802797286,-50.35139110795618,-12.974686709272206,-12.219124903128346,-112.9746867092722,-4.773743823529408,-14.947495043127951,-2.7985505814566403,-1.4266612110440415,-1.3718893704125987,-2.8738274055651316,-1.4563923649483614,-1.4174350406167702,55.19166584523639
54.2574,2019-10-09,55.436,53.8618,55.1433,3575300,-1.7672720990491015,-1.0250377677711844,-0.7422343312779172,56.765608333333326,59.68783461538462,56.49647771337941,58.263749812428514,1.3339206718152512,0.8006823123640989,0.5332383594511523,-0.2153272733413382,24.161321589907367,2.208964999999992,-78.82682547320363,-54.22365244245472,-24.603173030748906,57.1684,61.5982,59.3833,61.5982,0.052967384997884705,17.014478439107346,56.0199508385588,81.22891658482887,-104.5067484710647,59.792625,60.0161,32.0,96.0,-64.0,62.577602147550735,60.60599200320324,0.0,0.0,18474.542180680266,-97.62199999999997,11.05593478653398,-26.68447264423083,-245348.94779329465,1058620.7092988568,-6.3311365526727155,58.72383142116703,26.415783711390773,707.0889775100643,59.397135000000006,67.07154829178329,51.722721708216724,25.841021765724157,0.1393642882168929,0.0,0.0,56.82587000000001,56.25395999999999,57.39778,-2.0128508371275355,3.0913780140231673,0.0,1.0,55.175,68.0214,61.5982,21.627979194619407,-0.10222319093286793,1.3410229982985225,12.410664073261705,30.62997174792295,0.0,0.028804527992455805,0.04171762149004462,-29.058233441985198,-53.79960203802856,-13.562893114239335,-12.858001900664979,-113.56289311423933,-4.8914005882352996,-14.577891543240124,-3.0332275295334945,-1.7479744747419321,-1.2852530547915624,-3.130307423791966,-1.7911753767170824,-1.3391320470748838,54.78307655161191
54.5105,2019-10-10,55.0642,53.8697,54.3365,3057700,-1.845906575970318,-1.1892115294110113,-0.6566950465593067,56.12090833333334,59.480338461538466,56.0923580651672,57.938264641137515,1.3596718036110427,0.7756908431150743,0.5839809604959684,-0.25885259934468163,23.911773443758623,1.2004300000000043,-82.20201102388603,-59.66481945863945,-22.53719156524658,57.113,61.5428,59.3279,61.5428,0.026483692498942352,17.25392507365544,53.65911680947448,81.10645969090277,-100.1068560748886,59.792625,60.0161,28.000000000000004,100.0,-72.0,62.577602147550735,59.737033282690724,0.0,0.0,18474.542180680266,-43.11149999999997,11.08321663995897,-22.81088613076929,786699.094669835,1110993.30024107,-6.323141406762261,57.982272049198954,27.071085168533003,707.0889775100643,59.00557,66.96372779715381,51.047412202846196,26.974259539069976,0.1773204219551403,0.0,0.0,56.28664333333334,55.67518333333334,56.898103333333324,-2.1726646457806553,2.4763707628735756,0.0,1.0,55.0642,68.0214,61.5428,21.959282827028026,-0.09218812706448908,1.32716069846867,12.967458560729785,30.677410676070764,0.001852287537422329,0.0006174291791407023,0.025865375136811832,-30.642474535137715,-38.17882858502879,-14.533575052622592,-13.690384958711368,-114.5335750526226,-4.847087058823533,-12.557847356024803,-3.1859887198963177,-2.0355773237728094,-1.1504113961235083,-3.26517601272918,-2.085975503919502,-1.1792005088096777,54.52659604035253
54.7794,2019-10-11,55.9818,54.6212,55.2778,5662700,-1.8265300940599332,-1.3166752423407957,-0.5098548517191375,55.65550833333333,59.29596538461539,55.866026055141475,57.69255614920141,1.1355438355525043,0.7615831338636234,0.37396070168888085,-0.29514980161529586,23.659543720989404,0.2301700000000011,-83.56104453929893,-64.93171027684814,-18.629334262450797,57.113,61.5428,59.3279,61.5428,0.013241846249471176,16.938071208384155,55.22409743221747,71.48313236366488,-76.83795925663381,59.438649999999996,60.0161,24.0,96.0,-72.0,62.577602147550735,58.8959232918064,0.0,0.0,18474.542180680266,11.667900000000031,11.001554781965677,-13.671228240659394,-1194486.9786817671,915307.810721403,-5.55895079311488,57.36129154824049,34.28190025442534,707.0889775100643,58.64683,66.71558071596587,50.578079284034125,27.516408699211443,0.2505419276348218,0.0,0.0,55.93753,55.37037,56.504690000000004,-2.0278335493183244,1.660457366527962,0.0,1.0,55.0642,68.0214,61.5428,22.093606764423583,-0.034189485382644234,1.4056546286218028,13.268741345672916,35.21596528786053,0.22908645246107387,0.07697957999949866,0.035467179057031686,-30.87815812870326,-18.70082687133834,-6.127162833155805,-11.407877000005902,-106.12716283315581,-4.866565588235304,-9.276151878550312,-3.165971861839955,-2.2616562313862385,-0.9043156304537163,-3.299272795045717,-2.3286349621447453,-0.9706378329009717,54.54102616480103
53.9409,2019-10-14,54.202,52.2244,53.846,5351700,-1.981731652744834,-1.4496865244216033,-0.5320451283232308,55.101125,59.068999999999996,55.30577589281202,57.287507545556856,1.1580535370556622,0.8203198369510926,0.3377337001045696,-0.3323800090857655,23.160468984436793,0.16726000000000596,-88.48000557503373,-70.260466018293,-18.219539556740727,55.3411,61.1117,58.2264,61.1117,0.006620923124735588,17.348688021868686,53.20034797568851,84.42242201418614,-104.3228577856492,59.438649999999996,60.0161,20.0,100.0,-80.0,62.577602147550735,58.20621309928124,0.0,0.0,18474.542180680266,-42.27299999999997,11.22277947529767,-30.1875597948509,1059798.4089994854,900033.7138414191,-7.925898958296164,56.70060576736755,35.041860418237746,676.0616316938589,57.966139999999996,65.78648165095105,50.145798349048945,26.982447514880413,0.13289711266631643,0.0,0.0,55.39909333333334,54.835093333333326,55.96309333333333,-2.036134406050461,3.3144444444444208,0.0,1.0,54.202,66.7637,60.48285,21.67075468540773,-0.15743092097407158,1.342609165759623,13.625777593168158,28.7507928884675,0.0,0.07697957999949866,0.05152552972604597,-32.912870082460756,-31.020272907963108,-27.144327774346245,-15.935021886708205,-127.14432777434625,-5.251964117647063,-11.299149073492194,-3.459273649091642,-2.5011797149273196,-0.9580939341643222,-3.409621211447765,-2.5448322120053497,-0.8647889994424154,53.98107107561547
54.7794,2019-10-15,55.2066,53.2369,53.4742,6107900,-1.9999752482644126,-1.5597442691901653,-0.44023097907424735,54.693083333333334,58.77236153846154,54.987487293917866,56.98746254218228,0.9396389727236493,0.7644040772165607,0.1752348955070886,-0.3648577305541546,23.045823429322283,0.9318999999999988,-95.0311760978406,-75.61632748838335,-19.414848609457252,55.3411,61.1117,58.2264,61.1117,0.003310461562367794,17.72997506296146,47.599723220618884,75.5349179920009,-86.86624332224594,59.71945,60.0161,16.0,96.0,-80.0,62.577602147550735,57.405370479424995,0.0,0.0,18474.542180680266,12.506400000000035,10.650077705209545,-17.951602324157946,-1000615.8519443594,767772.2101430104,-6.863863922948711,56.15745168052726,42.37155896039127,676.0616316938589,57.431000000000004,65.0038926203928,49.8581073796072,26.37214264210201,0.22308467779499191,0.0,0.0,54.96955666666666,54.23231666666667,55.70679666666666,-2.682357452764599,1.6750967572748872,0.0,1.0,54.202,65.1737,59.68785,19.10414236213891,-0.08796266759025491,1.5065682491836605,13.674403062489944,34.24280762903321,0.41838372466794144,0.21582339237633838,0.12326085079177852,-33.034532598229674,-19.53289498873124,-16.31063038702044,-16.52737366484082,-116.31063038702044,-5.251624705882357,-8.422868781113788,-3.5095004393010574,-2.7028438598020674,-0.80665657949899,-3.3411529274625416,-2.7040963550967883,-0.6370565723657533,53.907034000758955
54.1583,2019-10-16,55.3736,54.1424,54.4204,4342100,-1.9192433046029436,-1.631644076272721,-0.28759922833022267,54.341375,58.429315384615386,54.85747386408435,56.77671716868729,0.7898727669965296,0.7344454440303313,0.055427322966198345,-0.3892038480941566,22.98686044544668,-0.5064199999999985,-97.42550073522345,-80.47937658320383,-16.94612415201962,55.3411,61.1117,58.2264,61.1117,0.001655230781183897,17.51297751250814,50.736004613122866,68.2118318802152,-66.81920787701839,60.76165,60.66475,12.0,92.0,-80.0,62.577602147550735,56.76469638354,0.0,0.0,18474.542180680266,66.66470000000004,10.736958123793563,-8.381324756421069,-979630.3059734168,638705.9887121114,-5.942691941672565,55.77288239350628,49.771851095172416,687.5606823053481,56.98662,64.22899710247124,49.74424289752876,25.41781598021164,0.30364043740352237,0.0,0.0,54.815353333333334,54.05873333333333,55.57197333333333,-2.7606134193789806,0.9447102464469134,1.0,1.0,54.202,65.1737,59.68785,19.25311590685673,-0.005432157277358669,1.5695814242652948,13.518114944656974,38.78716286887292,0.8353241839387711,0.4179026362022375,0.2369018695260248,-31.781818934578066,-10.366085493889221,-1.201661357312716,-14.88553983955979,-101.20166135731272,-5.256253235294125,-7.231477531102809,-3.38033510972596,-2.838342109786846,-0.5419929999391138,-3.339614017510886,-2.831199887579608,-0.5084141299312783,53.91117895442608
53.0382,2019-10-17,54.5634,52.7443,54.3092,4324000,-1.9456494079496238,-1.6944451426081018,-0.25120426534152207,54.03005000000001,58.03006153846154,54.532370192686756,56.47801960063638,0.7612841303640923,0.7339903286375138,0.02729380172657847,-0.4109751783538002,22.87109655803973,-1.4678150000000088,-102.0613581421198,-85.31886799218995,-16.74249014992985,55.3411,61.1117,58.2264,61.1117,0.0008276153905919485,17.65687605560958,50.00025329168686,74.26651803950547,-78.06766789384048,61.1275,60.85855,8.0,88.0,-80.0,62.577602147550735,56.252157106832,0.0,0.0,18474.542180680266,13.626500000000036,9.399215827633816,-17.77723656550377,220803.00613520583,492214.8005495807,-7.3122785765465235,55.41076967672359,50.50440088376257,669.8060465682713,56.42131500000001,63.11413244417849,49.72849755582153,23.724429124625967,0.22530141224766778,0.0,0.0,54.68244666666667,54.05307666666666,55.311816666666665,-2.3019087051335356,2.0397513916032355,0.0,1.0,54.202,64.8573,59.52965,18.88523867265411,-0.13680515799648962,1.4547232818387652,13.400639047097236,34.78945461723305,0.5025960771186723,0.5854346619084615,0.40638689682901247,-31.85539304165005,-13.632267892062513,-29.390297995886833,-15.63419658007332,-129.39029799588684,-5.176476470588241,-6.614530401804528,-3.44496747886624,-2.959667183602725,-0.48530029526351504,-3.463502179530039,-2.9576603459696944,-0.5058418335603445,53.86257303329722
51.1874,2019-10-18,53.1415,51.1874,52.9747,6595300,-2.068362458629224,-1.7692286058123263,-0.29913385281689764,53.71620833333333,57.62569230769231,54.01775939381187,56.086121852441096,0.8304657605826226,0.7878359033534555,0.04262985722916701,-0.43455874528986177,22.732154162675048,-1.1525649999999956,-108.79977286235916,-90.04014022454628,-18.759632637812885,54.209649999999996,60.581450000000004,57.39555,60.581450000000004,0.00041380769529597426,18.346704320131682,48.94443491383951,85.73006246754343,-108.380012962108,61.1275,60.85855,4.0,100.0,-96.0,62.577602147550735,55.842125685465604,0.0,0.0,18474.542180680266,-37.56089999999996,9.021545926076325,-26.622440350431845,449102.24000438146,520563.4920710543,-8.823222186756542,54.95036656681636,43.206631691821286,650.0347910221337,55.813365,62.0745793650493,49.55215063495069,22.43625470368721,0.13058563959871924,0.0,0.0,54.34459333333333,53.754703333333325,54.93448333333333,-2.1709243323684357,3.1760865020031788,0.0,1.0,53.1415,63.2831,58.2123,18.17055825249024,-0.19268162814546072,1.3489709536548884,13.29065832610133,30.962398385847976,0.22035910410819048,0.5194264550552112,0.50758791772197,-33.090651196282536,-27.449011089765644,-32.45851535637766,-21.016824903192393,-132.45851535637766,-5.50640911764706,-6.853248655681625,-3.687832908238779,-3.105300328529936,-0.5825325797088432,-3.793657422738153,-3.124859761323386,-0.668797661414767,53.60990532979661
53.7452,2019-10-21,53.8008,51.1,51.1556,5603500,-2.1479061597755873,-1.8449641166049786,-0.3029420431706087,53.419475,57.214307692307685,53.568873333225426,55.71677949300101,0.8510596138032157,0.7418782756878334,0.10918133811538233,-0.45797704462339983,23.127891731940274,-0.20687999999999818,-114.30096251527158,-94.52096188491521,-19.78000063035637,54.209649999999996,60.581450000000004,57.39555,60.581450000000004,0.00020690384764798713,18.987259137187916,48.94443491383951,85.73006246754343,-119.37502546562153,61.1275,60.85855,0.0,96.0,-96.0,62.577602147550735,55.30200054837248,0.0,0.0,18474.542180680266,-91.30609999999996,9.059849685286775,-23.490281797512978,2854118.0979882814,724429.0704987886,-8.914989506057768,54.496659837785344,43.73100720569212,650.0347910221337,55.21568,60.84884674974208,49.58251325025792,20.40422847184742,0.1346921560427412,0.0,0.0,53.94143666666666,53.09018666666667,54.79268666666667,-3.1562006969163052,2.1689789525208023,0.0,1.0,53.1415,62.2943,57.7179,16.57645074732395,-0.22304649943186777,1.4754138582894,12.887170678833597,30.757844133562514,0.19997780562230116,0.3076443289497212,0.47083514863779796,-34.12947781096331,-22.88567039104724,-61.14655404798267,-40.998455800082375,-161.14655404798268,-5.650052941176469,-6.514357638380705,-3.855043631955435,-3.255248989215036,-0.5997946427403988,-3.6423227812721337,-3.228352365313136,-0.41397041595899786,53.34617769470498
55.2624,2019-10-22,56.1521,53.5387,53.912,4476400,-1.9912089893372595,-1.874213091151435,-0.11699589818582457,53.29696666666667,56.74125,53.56423128195998,55.555440271297236,0.5932088022270494,0.7334469139626737,-0.14023811173562428,-0.47142749728872646,23.736291641813835,0.3467899999999986,-112.92345837156961,-98.30947665140032,-14.613981720169292,54.209649999999996,59.952600000000004,57.081125,60.581450000000004,50.00010345192383,17.957172113042542,60.23809660835172,66.00228388676433,-40.42958090021677,63.548075,62.87965,0.0,92.0,-92.0,62.577602147550735,54.86990043869799,0.0,0.0,18474.542180680266,-36.04369999999996,9.03094618996001,-0.8818965578682914,-10352209.43172933,-246596.17735693656,-6.27764283521628,54.37676634033749,51.10419085789981,650.0347910221337,54.812310000000004,59.65758574360839,49.96703425639162,17.6795166764852,0.3685719794502841,0.0,0.0,53.943283333333326,52.936053333333334,54.95051333333333,-3.7344037580211564,0.7008395963848053,1.0,1.0,53.1415,61.4875,57.314499999999995,15.226506600433362,0.047591660675772605,1.8330824724604597,12.131466772591306,42.226978225745704,1.0,0.4734456365768305,0.43350547352725427,-31.346015790606906,-6.267264126760219,11.896846077814647,-27.236074442181888,-88.10315392218536,-5.361294999999991,-2.6724814938700754,-3.5841836184061693,-3.3210359150532627,-0.2631477033529066,-3.261726389168914,-3.235027170084292,-0.026699219084621806,53.3475305117087
57.145,2019-10-23,57.7805,54.8573,55.326,5533200,-1.74056124623786,-1.8474827221687202,0.10692147593086032,53.271816666666666,56.39192692307692,53.76316493088921,55.50372617712707,0.46933624295326387,0.7882742316784874,-0.31893798872522355,-0.47230349702764035,24.352926931923587,-0.6671750000000074,-108.21109045359533,-101.19937436581247,-7.011716087782858,54.23375,59.1576,56.695675,60.581450000000004,75.00005172596191,17.01940543691037,62.806649610354356,57.02085220284114,22.455707652987357,63.579724999999996,62.87965,4.0,88.0,-84.0,53.1415,54.86990043869799,1.0,0.0,18474.542180680266,21.101300000000045,8.822865390033108,10.008573950398636,-6533879.429521418,-972678.287439903,-4.870223585215813,54.43691652404415,58.681960350983324,650.0347910221337,54.544875000000005,58.712924612408635,50.376825387591374,15.283010960823102,0.5374785606042071,0.0,0.0,54.06070666666667,52.83729666666667,55.28411666666667,-4.526059962713527,0.17443729684515694,1.0,1.0,53.1415,60.119,56.630250000000004,12.79221925066287,0.2459046936581873,2.0739542252144143,11.251962136544366,47.308993010315945,1.0,0.7333259352074336,0.5048053002446617,-27.322240010266924,7.070389862642764,51.39126007128523,0.7138507003724115,-48.60873992871477,-4.91179352941176,-0.547144532815075,-3.135935848132553,-3.2840159016691213,0.14808005353656828,-2.6529206896438735,-3.118605873996209,0.4656851843523353,53.36749722561243
57.1688,2019-10-24,57.6375,56.1362,57.423,4249800,-1.422328840718528,-1.762451945878682,0.3401231051601541,53.460024999999995,56.12678076923078,54.12824724921395,55.55057608993248,0.45574191279887444,0.7804992967651201,-0.32475738396624565,-0.45941948233712715,24.77276371525632,-0.5460349999999963,-100.68279429176022,-103.10179100497483,2.418996713214611,55.282250000000005,59.1576,57.219925,60.581450000000004,87.50002586298095,17.001650091729736,66.09598423321384,47.110342879670114,80.80184740313088,63.579724999999996,62.87965,0.0,84.0,-84.0,53.18519,54.86990043869799,0.0,0.0,18474.542180680266,78.27010000000004,9.057337601187447,19.02351743177026,-366574.9499727143,-945695.1691088261,-3.5374350899745193,54.53262284469418,58.81218421421046,650.0347910221337,54.407835,58.15623724270285,50.65943275729715,13.778906081092373,0.7305468954625498,0.0,0.0,54.324916666666674,53.15282666666667,55.497006666666664,-4.315110162770602,-0.2726724625810902,1.0,0.0,53.1415,59.1618,56.151650000000004,11.065134277076085,0.49743368270684224,2.144578802692973,10.60060930890397,51.742840913588566,1.0,1.0,0.7355905239280881,-22.480618796345787,7.8099400719152205,69.94511269414926,44.41107294774972,-30.054887305850734,-4.225474117647067,4.191901287545692,-2.5604214048399383,-3.139297002303285,0.5788755974633468,-2.142827463434177,-2.923450191883803,0.7806227284496261,53.445959112938645
57.5739,2019-10-25,57.8361,56.5572,57.0576,2398800,-1.123208536215131,-1.634603263945972,0.511394727730841,53.68464166666667,55.838580769230774,54.50193228779642,55.62514082401155,0.4723067091759231,0.7693954303713045,-0.29708872119538143,-0.4354093132226252,25.163108562926116,-0.45932499999999976,-93.90208965229621,-103.70424479133733,9.802155139041119,55.282250000000005,58.999399999999994,57.140825,60.581450000000004,93.75001293149047,16.98516298549057,61.93294036693682,44.14310627310992,94.36642459522568,64.34899999999999,62.87965,0.0,80.0,-80.0,53.3547024,54.86990043869799,0.0,0.0,18474.542180680266,135.84400000000005,9.09927413841092,19.768530927231648,112771.41204608494,-936491.5136883998,-3.1056528906093996,54.620042970896634,59.006478427062895,650.0347910221337,54.329025,57.81810258232742,50.83994741767258,12.844248842409442,0.8193071732319689,0.0,0.0,54.51058666666667,53.331046666666666,55.69012666666667,-4.327746487899365,-0.36754723592812794,1.0,0.0,53.1415,59.1618,56.151650000000004,11.081185425286021,0.5673637526369121,2.1001109224236756,9.93017974223639,53.140721526218954,1.0,1.0,0.9111086450691445,-18.16705836146268,7.498825696977207,79.7781151465608,67.03816263733177,-20.221884853439214,-3.2031755882352826,5.004288753810677,-2.019246189000709,-2.91528683964277,0.8960406506420608,-1.6611991139693933,-2.670999976300921,1.0098008623315278,53.521179103797955
56.438,2019-10-28,58.2491,56.4142,58.0585,3211400,-0.8874623314194352,-1.4851750774406647,0.5977127460212295,53.89668333333333,55.57195769230769,54.79612732044312,55.683589651862555,0.39544706786585926,0.7389126360216288,-0.34346556815576956,-0.40447034712744956,25.322888243898845,0.3896100000000047,-86.16430626621978,-102.71903703226835,16.554730766048564,55.6,58.2123,56.90615,60.581450000000004,96.87500646574523,17.355978616201522,62.40426526817268,39.74995175262858,123.97459096735307,64.3589,62.87965,0.0,76.0,-76.0,53.517434304,54.86990043869799,0.0,0.0,18474.542180680266,79.40600000000005,9.869496716463575,15.791507366198552,-238748.130692082,-1102014.411890365,-3.2483515036949107,54.84449944001062,66.3211747616971,648.3912341431482,54.23159,57.35422502696036,51.10895497303964,11.515926517958851,0.8494820850268568,0.0,0.0,54.92556666666667,53.76256666666667,56.088566666666665,-4.234822034911477,-0.13999713384924195,1.0,0.0,53.1415,59.1618,56.151650000000004,11.101094399039377,0.5436107835157719,2.0592898301813074,8.977487299190782,52.5835399151554,0.9771552586586443,0.992385086219548,0.997461695406516,-14.872461173930324,12.168804202393655,66.55887736424648,72.09403506831886,-33.44112263575352,-1.884854117647052,4.723434509566601,-1.5937591972211345,-2.650981311158443,1.0572221139373084,-1.4276577112965168,-2.4223315233000404,0.9946738120035237,53.78750835174897
57.0417,2019-10-29,57.4151,55.6437,56.1282,3939500,-0.7541117455376778,-1.3389624110600673,0.5848506655223895,53.98189166666668,55.286957692307695,54.926523117298025,55.6806348628357,0.4747964407187275,0.7428281856598071,-0.2680317449410796,-0.3719520149000408,25.491308598193935,-1.9653649999999985,-79.42991688635662,-100.7195277157276,21.28961082937097,55.6,57.7179,56.658950000000004,60.581450000000004,98.43750323287261,17.219690858570026,62.40426526817268,45.70378734447728,73.5225673474361,64.3589,62.87965,0.0,72.0,-72.0,53.78989824576,54.86990043869799,0.0,0.0,18474.542180680266,22.36430000000005,9.956486123889098,7.2569163353130595,3118225.4999412764,-861759.0941950384,-4.027421841482205,54.96146353876494,58.9205103434815,648.3912341431482,54.189765,57.21158791557592,51.167942084424084,11.152744122717333,0.7405725021982139,0.0,0.0,55.167876666666665,54.04942666666667,56.28632666666666,-4.054714691152076,0.2872844859701642,1.0,1.0,53.1415,58.0585,55.6,9.073669169814634,0.5088875330486071,1.9534508471631766,8.047910523604807,49.56782371860245,0.8535092963705408,0.943554851676395,0.9786466459653144,-12.938274923519637,12.818254772393283,50.888753304860714,65.74191527188934,-49.111246695139286,-1.3031929411764693,1.8719837718687997,-1.3543519167756708,-2.3916554322818886,1.0373035155062178,-1.1423476097530119,-2.166334740590635,1.0239871308376232,53.86548966083337
55.3021,2019-10-30,57.5898,55.1989,57.2006,3361400,-0.6765235458236205,-1.206474638012778,0.5299510921891575,54.22976666666667,55.04052692307692,54.968427253098326,55.64495079892195,0.4333198216457237,0.7706351944845515,-0.33731537283882784,-0.34052378977296016,25.563553277319045,-0.9651350000000036,-74.49383522919597,-97.65646961429161,23.162634385095643,55.6,57.314499999999995,56.45725,60.581450000000004,99.21875161643632,17.52108682938669,63.09656926608963,40.81806680989216,85.33615142344361,64.220475,62.87965,0.0,68.0,-68.0,54.0460143510144,54.86990043869799,0.0,0.0,18474.542180680266,-32.93779999999995,10.277819278790842,2.706160561696903,-438836.24672480125,-949297.3328660838,-4.469491187697502,55.121438701107174,66.05726275934553,643.2081780029764,54.202035,57.23812195216388,51.165948047836125,11.202852262516998,0.6641693758621627,0.0,0.0,55.369640000000004,54.307590000000005,56.43169,-3.836217826231123,0.5803822795536944,1.0,1.0,53.1415,58.0585,55.6,9.071615115557934,0.418425869432581,1.9527157624468583,7.072997844088114,47.86133934540252,0.7835425326892982,0.8714023625728277,0.9357807668229235,-11.800768145483728,11.85395352089343,41.8425869432581,53.096739204121775,-58.1574130567419,-0.9652352941176474,5.695613544626648,-1.2157860436759114,-2.1564815545606932,0.9406955108847819,-1.1535664822818055,-1.9637810889288694,0.8102146066470639,53.88769627216985
55.0559,2019-10-31,55.3895,54.1027,54.9447,5272200,-0.6954715540724479,-1.104274021224712,0.4088024671522641,54.30191666666667,54.805784615384624,54.83523844492935,55.5307099990018,0.5489411562973336,0.8277056957503358,-0.27876453945300217,-0.3142636195229554,25.622858961708573,-0.031730000000003145,-69.55765987891888,-93.29623483835381,23.738574959434928,55.92965,56.630250000000004,56.27995,60.581450000000004,99.60937580821815,16.626692430456227,63.09656926608963,57.08786982039255,-14.091023765847098,63.955475,62.87965,0.0,64.0,-64.0,54.286763489953536,54.86990043869799,0.0,0.0,18474.542180680266,-87.99369999999996,10.472233832216752,-6.302187744259822,1800095.6845678703,-735398.5712053954,-5.562851337628027,55.087168777254234,58.950808503914125,630.4346480100443,54.174130000000005,57.20308850886072,51.14517149113929,11.18230605220875,0.48820881834613283,0.0,0.0,55.46364,54.382529999999996,56.54475,-3.898445900773921,1.1294179130708237,0.0,1.0,53.1415,58.0585,55.6,9.076287888702598,0.19548505186089032,1.782864186202173,6.495417368919209,43.854293718438385,0.61925153838266,0.7521011224808328,0.8556861122433519,-11.949113322018745,-0.569300539456075,19.548505186089034,37.426615144735955,-80.45149481391097,-1.1845020588235329,1.6263155818614534,-1.2524088996610152,-1.9756670235807576,0.7232581239197424,-1.1846898496975136,-1.8079628410825983,0.6232729913850847,53.89254113114767
56.5175,2019-11-01,56.7002,55.318,55.6516,3033100,-0.6054442493776904,-1.0045080668553077,0.3990638174776173,54.39988333333334,54.6689,54.90950945340175,55.514953702779444,0.452545857635896,0.7999134666662197,-0.34736760903032365,-0.2878191625721589,25.603629810083646,-1.4452899999999929,-61.40715441195377,-87.41914504909626,26.01199063714249,56.724000000000004,56.151650000000004,56.437825000000004,60.581450000000004,99.80468790410907,16.099791237198286,61.17973536230017,50.81970254451863,43.78839230783201,63.557975,62.87965,8.0,60.0,-52.0,54.513067680556325,54.86990043869799,0.0,0.0,18474.542180680266,-31.476199999999963,10.333405384808318,4.410370183491574,-1871681.6561242181,-944790.0044285171,-4.293308084703503,55.261592159656765,65.95030343587226,630.4346480100443,54.189589999999995,57.23852202869459,51.1406579713054,11.252832983953539,0.6850500420114536,0.0,0.0,55.809180000000005,54.63989,56.97847,-4.1903142099561395,0.710033439095521,1.0,1.0,53.1415,58.0585,55.6,9.073698472344969,0.4426479560707742,1.864327767581956,5.475366550528158,48.956502736851256,0.8130616222407361,0.7386185644375646,0.7873740164970751,-10.558685231130754,3.2934866488353896,44.26479560707742,35.21862924547486,-55.735204392922576,-1.0785449999999983,2.1713112089600677,-1.090596693314684,-1.798652957527543,0.7080562642128589,-0.9870045480585824,-1.6437711824777952,0.6567666344192128,54.051984713347736
58.5351,2019-11-04,58.972,57.4865,57.5263,6808500,-0.3550246317464314,-0.8746113798335324,0.519586748087101,54.79506666666666,54.64401923076923,55.305969537493795,55.660994169240226,0.44579803128556866,0.8465701662025328,-0.4007721349169641,-0.254304463103346,25.761762104592137,-3.1185600000000093,-47.653814993877454,-80.16696245157492,32.513147457697464,56.724000000000004,56.151650000000004,56.437825000000004,60.581450000000004,99.90234395205454,16.344983173516628,64.60074343077252,43.488278607179275,139.83901778865064,63.051725,62.87965,4.0,56.00000000000001,-52.00000000000001,54.72579361972294,54.86990043869799,0.0,0.0,18474.542180680266,27.058900000000037,6.131648081152096,21.913655064421363,-5120513.204897578,-1239068.3867823184,-1.998695764120685,55.557939474767394,66.29538367621544,630.4346480100443,54.305960000000006,57.65674375751104,50.955176242488974,12.340390474677296,0.97459642730907,0.0,0.0,56.40679333333334,55.35745333333333,57.456133333333334,-3.7206156847065373,-0.014469412519615064,1.0,0.0,53.1415,58.0585,55.6,9.05425481843982,0.8836689038031315,2.0432949908237608,4.839929505963008,56.544795926415674,1.0,0.810771053541132,0.7671635801531765,-6.828675059360768,9.305910352905034,88.36689038031315,50.72673039115987,-11.633109619686852,-0.8021838235294112,8.990924137774122,-0.6378337955426381,-1.5664891251305622,0.9286553295879241,-0.5342403391844516,-1.4218650138191267,0.8876246746346751,54.61525691429383
58.7893,2019-11-05,59.8616,58.3206,59.0991,4412800,-0.0882431691379395,-0.7173377376944139,0.6290945685564744,55.3895,54.642392307692305,55.769758839417825,55.858002008555765,0.42088767237423236,0.8541885677275731,-0.43330089535334076,-0.2140212079793068,26.007591539892594,-3.428105000000002,-36.89098179966206,-72.24250593447121,35.351524134809154,57.244299999999996,56.151650000000004,56.697975,60.581450000000004,99.95117197602727,17.10641369274322,67.95615434100145,39.057189627292935,162.00290111822056,62.539525,62.87965,0.0,52.0,-52.0,54.925756002539565,54.86990043869799,0.0,0.0,18474.542180680266,85.84820000000003,6.130511413209723,25.78829793093259,-1596872.2199447935,-1283157.0949231312,-1.1456927959455465,55.88661425412137,66.69182569778832,630.4346480100443,54.528105000000004,58.298667786362245,50.75754221363776,13.829795795625909,1.002908347490868,1.0,0.0,56.862743333333334,55.96116333333333,57.76432333333334,-3.1710745811712897,-0.30850100194473046,1.0,0.0,53.1415,59.0991,56.1203,10.925741872012605,0.8693265744595137,2.076475491741385,4.437297918415423,59.065580289180474,1.0,0.9376872074135786,0.8290256084640917,-2.94706428089083,11.299494046407018,86.93265744595138,73.18811447778064,-13.06734255404863,-0.13242764705883303,13.935460679776668,-0.1579776683104836,-1.2847868337665467,1.126809165456063,-0.13931917254634463,-1.1653558455645703,1.0260366730182255,55.09986178544234
56.7319,2019-11-06,58.543,56.1441,58.3762,5247800,-0.05184466516675457,-0.584239123188882,0.5323944580221275,55.80984166666667,54.629465384615386,55.827349787199694,55.87919445236645,0.4374170807850177,0.8732781466716022,-0.4358610658865845,-0.1780046344532129,26.023251010492714,-1.103519999999996,-31.62473491717659,-64.56938822618415,32.944653309007556,57.244299999999996,56.1203,56.6823,60.581450000000004,99.97558598801363,17.111681947414848,67.70002466499069,47.848578982864844,89.01162403964472,62.5237,62.87965,96.0,48.0,48.0,55.2596235223364,54.86990043869799,0.0,0.0,18474.542180680266,29.11630000000003,7.057528142902402,4.464686747942245,300115.2790581712,-1277491.932571491,-3.2629031872995427,56.15237387552253,66.06445480337393,606.9070949431372,54.642219999999995,58.463024927027774,50.821415072972215,13.984808549241887,0.6965397381813373,0.0,0.0,57.03272666666667,56.35991666666666,57.705536666666674,-2.3593821979871628,1.1603845563135655,0.0,1.0,53.1415,59.0991,56.1203,10.90292451514598,0.5039948972740703,1.8910679425672463,3.750265112702561,50.78674052698241,0.7075414396726656,0.9025138132242218,0.8836573580596442,-2.214306411500402,1.4489276042633237,50.39948972740703,75.23301251789053,-49.60051027259297,0.2788567647058926,9.871037181996087,-0.09277990793326295,-1.0463854485998898,0.9536055406666268,-0.11879471019693069,-0.9560436184910424,0.8372489082941117,55.11973953391775
59.3691,2019-11-07,60.0523,57.0894,57.5501,7641200,0.0526720506530296,-0.45685688842049976,0.5095289390735294,56.105733333333326,54.71161538461539,56.021511358399735,55.968839307746705,0.37479324396184216,0.7981355967060056,-0.4233423527441635,-0.14276200796157584,26.108926979232244,0.054094999999996674,-25.394048846413703,-56.957383692197205,31.5633348457835,57.244299999999996,56.1203,56.6823,60.581450000000004,99.98779299400681,17.11657389818136,61.3979941503398,43.394471228475304,99.98687439868871,61.811775,62.6028,92.0,44.0,48.0,55.566781640549486,54.86990043869799,0.0,0.0,18474.542180680266,88.48540000000003,6.988115530537628,11.844247245379034,-1439724.5705257596,-1412408.1333236436,-2.2633037595769516,56.54711216515227,72.62112584167636,606.9070949431372,54.803205000000005,58.74950278018586,50.856907219814154,14.401704353553232,0.7896632650833971,0.0,0.0,57.14923,56.24765,58.05081,-3.1551781187603023,0.5331806384347488,1.0,1.0,53.1415,59.0991,56.1203,10.870897057936665,0.6626661742983748,2.0927811483105216,2.8478381864097377,53.81459781312659,0.8145036237731157,0.8406816878152603,0.8936275694843535,-0.6258893915484623,10.244385189803129,62.068965517241324,66.46703756353325,-37.93103448275868,1.1855429411764717,6.632025058509076,0.09410959974247529,-0.8182864389314168,0.9123960386738921,0.26850196000711857,-0.7111345027914102,0.9796364627985288,55.148436393848506
59.3374,2019-11-08,59.7981,58.0982,58.7813,3136400,0.21443218925082874,-0.3225990728862341,0.5370312621370628,56.37580833333333,54.84382307692307,56.34100191864593,56.1265697293951,0.35280227345970167,0.8375648199689452,-0.4847625465092435,-0.1057473126178893,26.202283739329417,1.1591450000000094,-17.448791266694037,-49.32232647002767,31.87353520333363,57.244299999999996,56.1203,56.6823,60.581450000000004,99.9938964970034,17.5783716538968,62.62218548786747,38.72318192984051,112.3966821438839,60.943625,62.1282,88.0,40.0,48.0,55.849367109305526,54.86990043869799,0.0,0.0,18474.542180680266,147.82280000000003,6.9437412791688455,18.703578941753463,-837088.9186246728,-1676065.777367426,-1.2147804063800367,57.025134764083006,79.16665001753285,617.6314654458686,54.97705499999999,59.17433318066658,50.77977681933341,15.269199780405069,0.8718058305471099,0.0,0.0,57.32345333333334,56.39804333333334,58.248863333333325,-3.228730811518888,0.08140355806254967,1.0,1.0,53.1415,59.0991,56.1203,10.836520799449879,0.8319961058144216,2.1543730334794695,2.0621529022842386,56.8646462381167,0.8692923532029342,0.7971124722162384,0.8467693244185734,1.67088399543284,16.932705996577596,73.01865430235063,61.82903651566634,-26.981345697649367,1.937389705882346,5.907873701403452,0.38205112174978406,-0.5782189267951767,0.9602700485449608,0.5623599629365033,-0.4564356096458275,1.0187955725823308,55.21516959632739
58.6384,2019-11-11,59.2579,57.9235,58.3842,2905800,0.3247874865653415,-0.19312176099591893,0.5179092475612604,56.524750000000004,54.95592692307692,56.584463161931176,56.259675675365834,0.44129084740382124,0.7959068272454912,-0.35461597984167,-0.06952658033911505,26.40095577921982,1.295189999999991,-7.383870164588979,-41.31721016760905,33.93334000302007,57.244299999999996,56.1203,56.6823,60.581450000000004,99.9969482485017,17.69614797570522,61.41859630356286,41.609195368114165,90.14526677507283,60.696425000000005,62.1282,84.0,36.0,48.0,56.10934574056108,54.86990043869799,0.0,0.0,18474.542180680266,89.18440000000004,6.537379134769824,14.568192167217244,698278.7814810772,-886745.1907095398,-1.3911047758097268,57.3056287204788,71.90428938464966,615.7742613153896,55.26201000000001,59.44689141236999,51.07712858763003,15.145599707176707,0.8179887000062842,0.0,0.0,57.41824666666666,56.424526666666665,58.41196666666667,-3.461338712653144,0.24577681171088084,1.0,1.0,53.1415,59.0991,56.1203,10.780642976974594,0.8026722170001338,2.0549057301315226,1.9155057298254867,56.1728141500548,0.8098276483272807,0.8312078751011102,0.8230006783775363,3.2870322310287183,18.15894142256851,68.30925167133917,67.79895716364372,-31.690748328660835,2.1657902941176417,3.1838635319098816,0.5773006734689634,-0.34711500674234874,0.9244156802113122,0.6878394931575218,-0.22758058908515766,0.9154200822426795,55.274811682296466
58.2173,2019-11-12,59.0832,57.5739,58.8608,3262000,0.3796585886030286,-0.07856569107612943,0.458224279679158,56.609474999999996,55.048803846153845,56.736684213941764,56.357025625338736,0.4755748660640316,0.7695270357346686,-0.29395216967063703,-0.036484677374223194,26.403770336950323,0.9353400000000036,0.7943576037913069,-32.95185540838824,33.746213012179545,57.244299999999996,56.1203,56.6823,60.581450000000004,99.99847412425083,17.992409299863894,60.7471123508031,38.96597785679763,82.6622436625736,60.494725,62.1282,80.0,32.0,48.0,56.348526081316194,54.86990043869799,0.0,0.0,18474.542180680266,30.967100000000038,7.10385590988061,9.579483560471964,-57665.47057317952,-424158.4793560942,-1.7424780194845702,57.48604027567145,64.66691697323964,612.0577268905731,55.47886,59.67098234048576,51.28673765951424,15.112503539134584,0.7498782036686986,0.0,0.0,57.62927666666667,56.74200666666667,58.51654666666667,-3.0792335122720926,0.5312062093087039,1.0,1.0,53.1415,59.0991,56.1203,10.738504720536794,0.743990868806231,1.9653851571183705,1.9403270258220437,54.737630250758066,0.7154777133219661,0.7981992382840604,0.8088398618671363,4.195520323627982,12.216591284135236,58.88505499245209,66.73765365538064,-41.11494500754791,2.1462482352941166,1.797649105684157,0.6736668310478222,-0.14295863918431456,0.8166254702321367,0.7195544495739351,-0.0381535813533391,0.7577080309272742,55.346129321748315
57.6772,2019-11-13,57.9393,56.4777,57.7249,3847700,0.3308760208137187,0.0033226513018401876,0.3275533695118785,56.61476666666667,55.148803846153854,56.69684048871996,56.36596446790624,0.5624340741279599,0.7884512017200335,-0.2260171275920736,-0.010766093067279147,26.367309778739838,0.0480749999999972,6.317400810165657,-24.52129310960107,30.83869391976673,57.89965,56.1203,57.009975,60.581450000000004,99.99923706212542,17.595090808485626,60.08490804578186,46.799259066311436,34.494341795950994,59.6226,61.5982,76.0,28.000000000000004,48.0,56.568571994810895,54.86990043869799,0.0,0.0,18474.542180680266,-26.71009999999996,7.6493904802732215,-0.8212636110240563,423728.1976240263,-367708.2545277556,-2.8406448388245886,57.50834261206726,57.55595668412799,600.4042227816375,55.595625000000005,59.76235809194384,51.42889190805617,14.989428006048433,0.6058473125751012,0.0,0.0,57.70103,56.83124,58.570820000000005,-3.0148161999881173,1.203232964278735,0.0,1.0,53.1415,59.0991,56.1203,10.715951120254514,0.5599906002417078,1.8053866414065336,2.1161526754262727,50.39021946212766,0.4296760641049719,0.6516604752514062,0.760355862878859,3.7041455755378783,-3.943010999864753,29.334699158938967,52.17633527424342,-70.66530084106103,2.092895294117646,0.11256031282903536,0.5870138547919526,0.003035859610938871,0.5839779951810137,0.6613748340593314,0.10175210172919501,0.5596227323301364,55.36648008026643
57.4707,2019-11-14,58.972,57.28,57.8838,3425200,0.3528865329923079,0.07323542763993372,0.27965110535237414,56.751124999999995,55.28027307692308,56.78655733660919,56.433670803616884,0.5244047129582858,0.7965823612563186,-0.2721776482980328,0.011747572666164788,26.348144841064784,-0.6235100000000031,13.53711991364182,-16.194151517868228,29.73127143151005,58.5192,56.1203,57.31975,60.581450000000004,99.99961853106271,17.29762181177214,55.277476628378906,42.1874283419299,57.016313952299896,59.3833,61.5982,72.0,24.0,48.0,56.771014235226026,54.86990043869799,0.0,0.0,18474.542180680266,30.76060000000004,7.105317696750597,5.8830229919794,-1128139.3127280525,-456344.7348687654,-2.0242386712575637,57.57227247161589,57.597653324851855,608.9333291003741,55.822410000000005,59.83456053202144,51.81025946797857,14.374694793798534,0.6816469731590081,0.0,0.0,58.02432666666666,57.09019666666667,58.95845666666666,-3.2197874707493246,0.8984063602853292,1.0,1.0,53.1415,59.0991,56.1203,10.672416328854306,0.6946589230562644,1.8742779772658806,2.1692175682112453,53.31284880036879,0.6218116421607174,0.5889884731958851,0.6796160622437838,4.142058633309696,-3.469186537507577,50.96236791028688,46.39404068722599,-49.03763208971312,2.0383088235294053,2.940674326114184,0.6253120308624175,0.1274910938612346,0.4978209370011829,0.5796877369935046,0.19733922878205695,0.38234850821144767,55.47867082715892
58.3683,2019-11-15,58.7893,57.6216,57.8361,3505300,0.3933598797647946,0.1372603180649059,0.2560995616998887,56.95301666666666,55.42457692307692,56.91502543866932,56.52166555890452,0.564208948748792,0.7910394194553446,-0.2268304707065526,0.03230465847694888,26.3236238409702,-2.0414200000000022,20.39748550248581,-8.632895907161195,29.030381409647006,58.5192,56.1203,57.31975,60.581450000000004,99.99980926553135,16.908370598908853,53.050846558671125,41.81146092254071,54.64522726237792,59.3279,61.5428,68.0,20.0,48.0,56.95726109640795,54.86990043869799,0.0,0.0,18474.542180680266,89.12890000000004,6.131396003599093,7.89096417598234,188130.61199315538,-425853.3961055342,-1.676148390531309,57.609045385082005,57.72607236502967,608.9333291003741,56.14412,59.613142338700044,52.67509766129996,12.357562425771542,0.71295337068277,0.0,0.0,58.24356666666667,57.318976666666664,59.16815666666666,-3.1749085879012617,0.8363472818582631,1.0,1.0,53.8008,59.0991,56.44995,9.436963300876384,0.721136968461582,1.8377801795392923,2.1916995196592977,54.54083542691908,0.7025402919589693,0.5846759994082195,0.6084416492851702,4.853166067216176,8.786956663469962,60.1709079146,46.82265832794195,-39.8290920854,1.8640441176470617,4.389036738050938,0.6959453085381062,0.24118193679660893,0.4547633717414973,0.6332175165884711,0.28451488634333977,0.3487026302451314,55.568431253333486
56.6048,2019-11-18,57.9393,56.16,57.7646,2965800,0.3039921613698553,0.1706066867258958,0.1333854746439595,57.12445833333333,55.483761538461536,56.79886767887404,56.494875517504184,0.5354020500723481,0.7910490712256252,-0.2556470211532771,0.04548719922820421,26.24261264086838,-1.0791200000000103,22.817359879867986,-1.9986357205467473,24.815995600414734,58.40005,56.1203,57.260175000000004,60.581450000000004,99.99990463276568,16.02498900467524,52.46559538739673,47.90761932224964,-0.12659364170722417,59.3279,61.5428,64.0,16.0,48.0,57.12860820869531,54.86990043869799,0.0,0.0,18474.542180680266,32.52410000000005,7.02299685185032,-5.055398660586597,142201.76557465122,-638426.5199888647,-3.1119567623918685,57.672320414931534,57.693971168091004,593.4874380835832,56.39712000000001,58.983526987772805,53.81071301222721,9.172124348806452,0.45416034655006093,0.0,0.0,58.17287,57.37537999999999,58.97035999999999,-2.7417935542805427,1.7620032853076506,0.0,1.0,55.3895,59.0991,57.244299999999996,6.577640844071472,0.20770433469915842,1.6857721615853634,2.365912878011548,48.645187992761194,0.3149565457229489,0.5464361599475451,0.5733668775172166,3.7445041816568625,-4.147035992524346,20.77043346991584,43.967903098267584,-79.22956653008416,1.7087491176470593,3.802582865550144,0.538088027604676,0.30056315495822233,0.23752487264645367,0.4239586828413576,0.3124036456429434,0.11155503719841425,55.581995633923
55.9217,2019-11-19,56.7081,55.4292,56.6843,3763500,0.17221298415023512,0.17092794621076365,0.0012850379394714617,57.133725,55.60702307692308,56.58814957443188,56.415936590281646,0.6122676084780203,0.8211589607421055,-0.20889135226408517,0.05051946873385787,25.734639673398124,0.9948550000000083,22.254762784214055,3.9879751351633246,18.26678764905073,57.78445,56.1203,56.952375,60.581450000000004,49.99995231638284,15.246581585514779,50.275636053698314,55.70981218818163,-82.94685853189213,58.2264,61.1117,60.0,12.0,48.0,57.12860820869531,59.0991,0.0,1.0,18474.542180680266,-23.397599999999954,12.141634636360514,-10.171424331931329,49188.150574824474,-603567.6344674628,-3.839655807263656,57.644581387558624,50.94326503017031,585.764492575188,56.49164499999999,58.77353501704725,54.20975498295273,8.078681429961051,0.2672006555831334,0.0,0.0,57.89088,57.16726,58.6145,-2.4999447235903145,2.2009480113871898,0.0,1.0,55.3895,59.0991,57.244299999999996,6.566634765194043,0.010701962475739535,1.5720049454268277,2.634621190182506,45.96950747300556,0.13905554567853892,0.38551746112015234,0.5055432068253056,2.0173749733433497,-19.374533825612037,1.0701962475739535,27.337179210696608,-98.92980375242604,1.2567744117647024,0.20101955963701462,0.3052559162509782,0.3015017072167735,0.003754209034204703,0.1599438551646334,0.2819116875472814,-0.12196783238264802,55.57197368823272
57.2403,2019-11-20,58.273,55.8502,56.1918,4027600,0.10058869448641872,0.15686009586589467,-0.05627140137947595,56.997366666666665,55.70753461538462,56.474618870673126,56.37403017618671,0.4686570857449957,0.7303422917657426,-0.2616852060207469,0.05125114804039495,25.5979478395682,1.7793099999999953,25.03381743095773,9.591071388204593,15.442746042753136,57.78445,56.1203,56.952375,60.581450000000004,24.99997615819142,14.52377469629435,47.19021107496593,52.29089082630536,-50.72089854678872,58.2264,61.1117,56.00000000000001,8.0,48.00000000000001,57.12860820869531,59.05128,0.0,0.0,18474.542180680266,33.84270000000004,12.138066957931562,-5.275768527369717,-1949569.5165818548,-871400.8631210147,-3.4049000052675957,57.77549986160855,57.63956396586733,585.764492575188,56.541290000000004,58.719646529037426,54.36293347096258,7.705365509125889,0.341373533031027,0.0,0.0,57.79927,56.88421000000001,58.71433,-3.166337567931198,1.5649957379844037,0.0,1.0,55.3895,59.0991,57.244299999999996,6.560869056931671,0.1241912874703479,1.6991844508841454,2.6225081330480404,47.75241505532601,0.1361406283659626,0.19671757325581674,0.3762237314411714,1.0853219011772897,-10.45662515594316,-35.43290674892668,-4.530759010478955,-135.43290674892668,1.0850476470588148,-2.8464074173936464,0.17843090900552466,0.2768875475745237,-0.09845663856899906,0.13440099586540388,0.2524095492109059,-0.11800855334550203,55.57416038706115
58.2412,2019-11-21,58.3524,56.6366,57.2403,4147700,0.10605925165025809,0.14669992702276738,-0.04064067537250929,56.857033333333334,55.803465384615386,56.49953904441573,56.39347979276547,0.5002949325923798,0.7487639995964075,-0.2484690670040277,0.0517167539230827,25.66597192844631,-0.42220999999999975,28.05945369508496,14.647543050624481,13.41191064446048,57.78445,56.1203,56.952375,60.581450000000004,37.50546135195245,13.748619156690578,50.22615126908523,46.66856754259999,-1.8835720775999163,58.2264,61.1117,52.0,4.0,48.0,57.12860820869531,59.0044164,0.0,0.0,18474.542180680266,92.08390000000004,11.585767833801098,2.0208955022545307,-1076847.3091213799,-814626.9811922404,-2.5848334758728866,57.880619177985984,57.806350033983506,585.764492575188,56.56631,58.736962064150305,54.3956579358497,7.674716855846893,0.5161909872984446,0.0,0.0,57.71718666666667,56.94113666666666,58.49323666666667,-2.6891470108614843,1.1962094366771823,0.0,1.0,55.3895,59.0991,57.244299999999996,6.557967100912189,0.33618179857666664,1.779486005795731,2.6702399764243263,51.004712853467915,0.3844820849074229,0.21989275298397473,0.26737592911998126,1.2110628456351948,-2.4659848647152813,-2.990380593893785,-12.451030365082163,-102.99038059389379,0.91223323529411,-2.8874874401154953,0.1880700606524091,0.2591240501901008,-0.07105398953769171,0.25200545524529055,0.25232873041778286,-0.00032327517249230997,55.58532857886628
57.979,2019-11-22,59.0276,57.8519,58.3921,2903300,0.2060836568167872,0.15857667298157135,0.047506983835215844,56.99935,55.99991153846153,56.70759457604407,56.501510919227286,0.49398912901540865,0.7247935165839643,-0.23080438756855565,0.0561178497422364,25.794237560106115,0.4583550000000045,29.69452072209012,18.767364260255494,10.927156461834628,57.78445,56.1203,56.952375,60.581450000000004,56.26094058526134,13.648740510052297,52.18883287631115,40.714923440809656,71.96703264283877,58.2264,61.1117,48.0,0.0,48.0,57.12860820869531,58.958490072,0.0,0.0,18474.542180680266,150.06290000000004,11.603398888334517,11.798178816218162,-1001275.0306145325,-520395.68302916567,-1.3407284501474717,57.91122115886199,57.79971488677565,598.3337426330415,56.63104499999999,58.87280761765155,54.38928238234843,7.917080172727026,0.7722980101432324,0.0,0.0,57.67031999999999,56.932399999999994,58.40824,-2.5590979900926603,0.37696498265394407,1.0,1.0,55.3895,59.0991,57.244299999999996,6.550470682644126,0.6637912443390126,1.8406374052161578,2.6788645339148642,55.60401994948812,0.735679513371597,0.4187674088816607,0.2784592450404841,2.6822356379425063,7.853925443981467,47.83772480133834,3.138145819505965,-52.16227519866166,0.9265499999999989,3.041815613751042,0.3647400812190627,0.2802472563958932,0.0844928248231695,0.30465965843541626,0.26279491602130955,0.041864742414106704,55.60155602954338
58.4,2019-11-25,58.4556,57.2482,57.844,3129200,0.23394341976131727,0.17365002233752055,0.06029339742379672,57.01258333333334,56.23301923076922,56.79076464126807,56.55682122150675,0.5789515355719578,0.681339127833836,-0.10238759226187821,0.06074460386167183,25.397119483382912,1.4254549999999995,28.646253061799843,21.862019311145332,6.784233750654511,57.5501,56.44995,57.000025,60.581450000000004,71.89004852012997,13.187091810545619,52.18883287631115,45.19142023035545,25.914675756599017,57.39555,60.581450000000004,44.0,0.0,44.0,57.12860820869531,58.913482270559996,0.0,0.0,18474.542180680266,91.66290000000004,10.838443973329257,5.076141842472682,586518.1164383524,-364439.23043036956,-1.950148019772675,57.82094788225864,50.501869465500945,598.3337426330415,56.672745,58.92780947400068,54.417680525999316,7.958197450999359,0.6275916956332274,0.0,0.0,57.603060000000006,56.89135,58.314769999999996,-2.4710840014401887,0.749300979331472,1.0,1.0,55.3895,59.0991,57.244299999999996,6.545650823866043,0.5010513262885481,1.7169436646945417,2.7072508353043854,52.945210918729906,0.6402583387062707,0.5868066456617634,0.4084889358424662,3.1514776709155172,-0.6873778692575232,25.08942258559002,23.3122555976782,-74.91057741440997,0.8886214705882409,0.27816021888476566,0.4136431551643784,0.30692643614959025,0.10671671901478813,0.4006160912295481,0.2903591510629573,0.11025694016659082,55.62393989735169
57.1212,2019-11-26,58.5271,57.0735,58.3683,3320000,0.239168665147929,0.18675375089960225,0.052414914248326755,56.927191666666666,56.46276923076924,56.83426238876529,56.59509372361736,0.49447473172289996,0.6564203659413127,-0.16194563421841274,0.0645922671189181,24.75078521505709,1.1792649999999938,27.948202731848365,24.265441746887852,3.682760984960513,57.5501,57.244299999999996,57.3972,60.581450000000004,82.83028664667137,13.046190986317493,51.724712909750615,41.293233644596725,32.32953074820166,57.39555,60.581450000000004,40.0,28.000000000000004,11.999999999999996,57.12860820869531,58.869374625148794,0.0,0.0,18474.542180680266,34.541700000000034,11.609391136777699,2.9253967735480604,-82817.79794542058,-391791.5930734832,-2.1244604634826882,57.8421561514217,57.52397072162143,596.5078528262356,56.744235,58.95448536887227,54.53398463112774,7.790219989298529,0.5744859054515168,0.0,0.0,57.55142666666667,56.84607666666667,58.25677666666667,-2.4511990087937554,0.8387868906689343,1.0,1.0,55.3895,59.0991,57.244299999999996,6.537404196214826,0.45395729997843537,1.6731392982250874,2.5605825792393455,52.167818954249036,0.5689061529984332,0.6482813350254335,0.5512851298562859,3.3215646696342054,-0.732249495944414,16.974032610210514,29.967059999046302,-83.02596738978949,1.1460376470588187,-1.7637379471308847,0.4225961110973882,0.3300603711391499,0.09253573995823833,0.2940886653399276,0.2911050539183514,0.0029836114215762155,55.63961486586849
57.4707,2019-11-27,57.6375,56.6605,57.2483,2346500,0.20759108059159104,0.190921216838,0.01666986375359103,56.82194166666667,56.582838461538465,56.80752971357063,56.59993863297904,0.5893331377008286,0.7175506810456547,-0.12821754334482605,0.06618681433248506,24.022505879878835,0.7565849999999941,29.88181887455863,26.081519409211943,3.8002994653466864,57.5501,57.244299999999996,57.3972,59.952600000000004,89.86324778949572,12.33157734199724,50.98557870570913,47.97557625037599,-36.53890441491836,57.081125,60.581450000000004,36.0,24.0,12.0,57.12860820869531,58.82614913264582,0.0,0.0,18474.542180680266,-22.928999999999967,11.246845546325499,-0.8832883512445506,680465.2805690566,-240349.4608524249,-2.5403347151055984,57.76673097426178,50.33393332841628,596.5078528262356,56.81731500000001,58.911983041743134,54.72264695825688,7.373343994671789,0.46256805449002997,0.0,0.0,57.531573333333334,56.80874333333334,58.254403333333336,-2.512811515902682,1.1025437055278149,0.0,1.0,55.3895,59.0991,57.244299999999996,6.528995606356973,0.3426245417295666,1.5622253684025789,2.5837283044937265,50.287985254802585,0.396367396037748,0.5351772959141505,0.5900884255337825,2.951339195655361,3.5007101713631763,-2.2111766618666255,13.284092844644645,-102.21117666186663,1.1074744117647057,-2.1804621612989514,0.36676909128419816,0.33740211516815954,0.029366976116038612,0.25568199050363605,0.28402044123540837,-0.028338450731772324,55.64620633004851
56.3189,2019-11-29,57.0735,55.9694,56.6922,1497600,0.1253546131404235,0.17780789609848474,-0.05245328295806123,56.688233333333336,56.62561153846154,56.67858668071361,56.553232067573184,0.64592745223351,0.6940851091962876,-0.04815765696277763,0.06367249561816969,23.600940695657844,-0.43294999999999817,29.16132946755899,27.05527984977563,2.106049617783359,57.5501,57.244299999999996,57.3972,59.1576,49.0094821444393,11.585139438019732,50.84368447316508,52.793564051313936,-109.14148331070817,56.695675,60.581450000000004,32.0,20.0,12.0,57.12860820869531,58.7837881499929,0.0,0.0,18474.542180680266,-79.24789999999996,11.240037178189624,-6.317388842495319,379174.77969207824,-153473.48240122845,-3.2272681482733248,57.60074539046213,43.13795182559036,589.2321214597949,56.91065,58.649256788782324,55.17204321121767,6.109952315717102,0.229309120937224,0.0,0.0,57.384883333333335,56.73274333333334,58.03702333333333,-2.272863381848805,1.585260322425663,0.0,1.0,56.7002,59.0991,57.89965,4.215204008388584,-0.30463962649547827,1.4473028315623213,2.734629773446627,47.22155852352991,0.1227103222664713,0.3626612904342174,0.5153733071246004,1.7809439932663231,0.8925757249052343,-34.31504622102489,-6.517396757560327,-134.31504622102491,0.887919999999994,-2.786853070575385,0.22165773477038822,0.3142532390886053,-0.09259550431821709,0.06277924435851309,0.23977220186002932,-0.17699295750151622,55.65666694046521
56.2315,2019-12-02,57.6851,56.1679,56.8908,3938000,0.07533054760870783,0.15731242640052936,-0.08198187879182153,56.66241666666667,56.626830769230764,56.60001949906536,56.52468895145665,0.5609136784484787,0.7010552312528053,-0.1401415528043266,0.059085754950497914,23.38158678558537,0.326855000000009,26.7524691437252,27.492514212426432,-0.7400450687012317,57.5501,57.244299999999996,57.3972,59.1576,24.50474107221965,10.76251690588255,48.49660359797953,48.56301566030991,-88.79706760660102,57.219925,60.581450000000004,28.000000000000004,16.0,12.000000000000004,57.12860820869531,58.742274386993046,0.0,0.0,18474.542180680266,-23.016399999999962,11.300073272460997,-3.820340043567395,-572225.4074673409,-244223.78161182973,-3.027838589442966,57.48547046130275,50.284841533512314,591.3218807945344,56.95314499999999,58.57134120995106,55.33494879004893,5.6825525963529,0.2573702758753418,0.0,0.0,57.26811,56.631859999999996,57.90436000000001,-2.2220045327146556,1.3646051080550001,0.0,1.0,56.7081,59.0991,57.9036,4.198187826150774,-0.22593057298201552,1.474142548406089,2.837307769444662,48.198602548662585,0.23136563278091704,0.25014778369504537,0.3826621233478044,1.0578230788736849,0.0033113715358482065,-25.094067914711744,-20.540096932534414,-125.09406791471174,0.5075414705882295,-0.5485350855293251,0.13327016743674897,0.27805662475823406,-0.1447864573214851,-0.10166156043797092,0.17148544940042926,-0.2731470098384002,55.676154640991626
54.6349,2019-12-03,55.6993,54.0788,55.6119,4555500,-0.1313724159572658,0.09957545792897034,-0.2309478738862361,56.39565000000001,56.53150769230769,56.21213957613223,56.343511992089496,0.6722053129022099,0.7516392220116983,-0.07943390910948844,0.04594218478384745,23.220198845313682,0.8388400000000047,22.381512034869022,27.506597462499208,-5.125085427630186,57.0457,57.244299999999996,57.144999999999996,58.999399999999994,12.252370536109826,11.146501899843106,46.457630479028055,64.33820184467378,-218.2203211360821,57.140825,60.581450000000004,24.0,12.0,12.0,57.12860820869531,58.70159089925318,0.0,0.0,18474.542180680266,-77.65129999999996,12.997790674181664,-19.579972835914923,261128.67416249274,-221452.7712735674,-5.059920429604343,57.25024970705798,50.71763497158581,569.32834816882,56.782759999999996,58.80709028569944,54.758429714300554,7.130087673439762,-0.1678653229420339,0.0,1.0,57.05231333333334,56.424793333333334,57.67983333333334,-2.199805628682088,2.869257819139882,0.0,1.0,55.6993,59.0991,57.3992,5.987380676811059,-0.4766456850402966,1.3823282935654806,3.3123321168842006,39.83957637875281,0.0,0.11802531834912937,0.243611464159464,-2.172319642604822,-20.74494715829639,-60.17899584076058,-39.86270332549906,-160.1789958407606,-0.029980882352944604,-5.5886871508379885,-0.2331633427034335,0.17581263126590055,-0.40897597396933405,-0.4533775080502245,0.04651285791029852,-0.499890365960523,55.58746443198833
57.2324,2019-12-04,57.6295,55.3101,55.3816,5310600,-0.19359869891114556,0.04094062656094716,-0.23453932547209272,56.203025,56.489042307692316,56.073364256727274,56.26696295563842,0.5227447811953928,0.6906625204336627,-0.16791773923826991,0.03183004633140751,23.441586180176575,-0.47223500000000485,19.90450030538317,26.93667333743537,-7.032173032052199,57.0457,57.244299999999996,57.144999999999996,58.2123,6.126185268054913,11.503059394235052,41.26335624958481,57.14475998453914,-119.0183241478569,56.90615,60.581450000000004,20.0,8.0,12.0,57.12860820869531,58.58149926328306,0.0,0.0,18474.542180680266,-20.418899999999965,12.91275322122972,-6.715654699355669,-3338323.405972842,-490170.742959058,-3.7568172890021163,57.15897840791877,57.85600024325666,569.32834816882,56.632235,58.62422825428074,54.640241745719266,7.034838919144675,0.1681376814005838,0.0,0.0,57.03563333333333,56.185703333333336,57.88556333333334,-2.9803473734840638,1.5151032045776343,0.0,1.0,55.6993,58.8608,57.28005,5.582509678454323,-0.12310612051241589,1.5991654642089324,3.4113294496762787,45.80535270247648,0.37843240688801605,0.20326601322297763,0.19047970508905077,-3.16264433021357,-14.69439293652917,-14.453357100416023,-33.24214028529611,-114.45335710041601,-0.46572117647058775,-4.0115165146403475,-0.3440717052096471,0.07183576397079101,-0.4159074691804381,-0.3603217192708111,-0.034854057525923396,-0.32546766174488767,55.58595860267802
56.0726,2019-12-05,57.8361,55.7311,57.6057,3480500,-0.20656118613813845,-0.00855973597886997,-0.19800145015926848,56.16728333333333,56.49240384615385,56.02070821723077,56.22726940336891,0.5204806731675743,0.7462676066247337,-0.2257869334571594,0.01907532411226224,23.577364408433407,-1.1823850000000036,18.356610862514344,25.858579689371968,-7.501968826857624,57.0457,57.244299999999996,57.144999999999996,57.7179,3.0630926340274565,10.962058877048891,50.99881079970853,47.142776644621556,-32.57898193402779,56.658950000000004,60.581450000000004,16.0,4.0,12.0,57.12860820869531,58.46621129275174,0.0,0.0,18474.542180680266,35.653700000000036,12.392042330561228,-2.3839090851620073,-499382.30080289464,-445259.5278215467,-3.3300134213540717,57.0880137209227,57.72966874703735,573.6618647341321,56.611585000000005,58.631754581272816,54.591415418727195,7.136947609832194,0.2820764632429381,0.0,0.0,57.064229999999995,56.399379999999994,57.729079999999996,-2.330181271174609,1.5025795292171125,0.0,1.0,55.6993,58.8608,57.28005,5.584545990012462,0.010058516526964092,1.6918489177880396,3.5170567713021565,47.71450342977397,0.4995372666143424,0.2926565578341194,0.20464929646874208,-3.4035358011819943,-7.20671896899685,1.180926916220921,-24.483808674985216,-98.81907308377907,-0.5067270588235289,-0.763710826210824,-0.3673683398286493,-0.016005056789097048,-0.3513632830395523,-0.44605927609934454,-0.11709510124060762,-0.3289641748587369,55.586746584643336
58.7496,2019-12-06,58.8767,56.16,56.3268,4368000,-0.18014876232864907,-0.04287754124882579,-0.13727122107982329,56.228183333333334,56.529369230769234,56.04213772227219,56.222286484600836,0.4996471572197732,0.7089961840706724,-0.20934902685089923,0.009226512434089623,24.129692745012964,-0.7149149999999906,15.001710316971511,24.22604519991434,-9.224334882942827,57.0338,57.244299999999996,57.13905,57.314499999999995,1.5315463170137282,10.459701253947458,48.62062219703069,44.944403538332054,-23.17611512730352,56.45725,60.581450000000004,12.0,0.0,12.0,57.12860820869531,58.35553484104167,0.0,0.0,18474.542180680266,94.40330000000003,12.385841301581154,1.5563212755754114,517144.94226344215,-421758.5042308119,-2.8778833998759388,57.01774599090709,57.69779242637729,573.6618647341321,56.56511499999999,58.58193716893308,54.5482928310669,7.130975227162853,0.39956600878343596,0.0,0.0,57.03537,56.22674000000001,57.843999999999994,-2.8355387192192976,1.0412673286917444,0.0,1.0,55.6993,58.8608,57.28005,5.589133868109341,0.145721967420527,1.8372240260092358,3.588593390995027,49.66010868382343,0.6229545788283447,0.5003080841102343,0.3320768850557771,-3.0346718361794136,-3.2110436316796576,17.10858585858571,1.2787185581302094,-82.89141414141429,-0.4965838235294058,1.3184386568812017,-0.32042233354915484,-0.0768885121411086,-0.24353382140804625,-0.13285652106309168,-0.12024738520510445,-0.01260913585798723,55.592822557933786
59.1864,2019-12-09,59.4962,57.8122,58.2094,3752000,-0.025602860343106215,-0.03942260506768188,0.013819744724575665,56.39168333333333,56.67204230769231,56.31445499576878,56.34005785611188,0.427824553703768,0.7446496425395279,-0.31682508883575994,0.007458021887154431,24.54352905129681,0.08578500000000133,12.67796091841359,22.45179051731587,-9.773829598902282,57.0338,57.3992,57.216499999999996,56.630250000000004,16.46944937815381,10.98841523512441,54.99072972481785,38.323266474109005,107.20568785382856,56.27995,60.581450000000004,8.0,84.0,-76.0,57.12860820869531,58.2492854474,0.0,0.0,18474.542180680266,153.58970000000002,12.349710919124123,15.303671104778928,-2719967.999405274,-626199.201729378,-1.1366481776537196,57.108635885588136,64.991997555046,573.6618647341321,56.550815,58.52761240416158,54.57401759583842,6.991225163285729,0.8190476164488361,0.0,0.0,57.04357666666666,56.16981666666667,57.917336666666664,-3.0634825200593627,0.060163355307330954,1.0,1.0,55.6993,58.8608,57.28005,5.5905471919370155,0.6683219990510829,1.9871216234083129,3.449347598550216,56.3919170369343,1.0,0.7074972818142289,0.5001539745861941,-0.5882688624118929,9.150720701041227,78.46479500891256,32.25143592790641,-21.535204991087436,-0.3711020588235314,3.512968619628929,-0.045443439920658094,-0.07059949769701851,0.025156057776360416,0.17377874294079815,-0.06144215957592394,0.2352209025167221,55.60294682023244
59.4486,2019-12-10,59.6551,58.5748,58.8211,3646900,0.15660606982041259,-0.00021687009006299274,0.15682293991047558,56.5532,56.797303846153845,56.66220038103512,56.50559431121471,0.3862455399215981,0.7235649823797102,-0.33731944245811213,0.013806718136604324,24.708469667214384,1.2685200000000023,14.400388382511734,20.946477811834022,-6.546089429322288,57.2602,57.3992,57.3297,56.151650000000004,41.12831457398378,11.762715952739455,55.39928989245888,35.546971323811334,147.44963778790654,56.437825000000004,60.581450000000004,4.0,80.0,-76.0,55.6993,58.2492854474,1.0,0.0,18474.542180680266,213.03830000000002,12.318435841709473,19.593932712667705,-540534.5121668067,-668322.2490680659,-0.3524624459223523,57.30772310881403,72.09376595680496,573.6618647341321,56.58338,58.66807093498292,54.498689065017075,7.36856276518979,0.9776295532786777,0.0,0.0,57.16035000000001,56.26435,58.056349999999995,-3.1350402857925017,-0.2893136160714342,1.0,0.0,55.6993,58.8608,57.28005,5.587329707062386,0.9095366123675488,1.9726994610674815,3.184701389775459,59.10995738703053,1.0,0.8743181929427815,0.6940411862890815,2.310729634805194,15.408693305056001,92.11032096867199,62.561233945390086,-7.889679031328014,0.22169058823529042,3.422168703629812,0.27715144266579433,-0.0010493096244559366,0.27820075229025026,0.44702526080025806,0.04025132449931247,0.4067739363009456,55.68248341915536
59.3135,2019-12-11,59.5995,58.8211,59.385,3158900,0.3172255328280613,0.06327161049356188,0.2539539223344994,56.63396666666666,56.84863461538461,56.99433878395279,56.67711325112473,0.4041790763282596,0.7434441624166025,-0.3392650860883429,0.026144460050088043,24.72333714063089,0.6024599999999936,17.078875358325803,19.523928532252594,-2.445053173926791,57.54215,57.54215,57.54215,56.26325,62.052704004528735,12.737178073409718,56.236537878615025,33.45120125380151,157.54063784912339,56.437825000000004,60.581450000000004,100.0,76.0,24.0,55.761736,58.2492854474,0.0,0.0,18474.542180680266,272.3518,11.99287857109272,18.88178733228659,-91910.23122897837,-535632.3001142892,-0.10305630112970957,57.48999798192917,72.25376157735568,576.074043986712,56.64574,58.91193359314247,54.379546406857536,8.001285156279952,0.9799589952470668,0.0,0.0,57.288239999999995,56.38667,58.18981,-3.147487163159488,-0.35010592632851595,1.0,0.0,55.6993,59.385,57.54215,6.506579312054176,0.8470032829584618,1.877899514960733,2.976691664560342,59.97760675264689,1.0,1.0,0.8606051582523367,4.926432384118508,16.467070994690097,84.70032829584619,85.09181475781025,-15.299671704153816,0.7325894117646996,1.6753123060781077,0.5597065810717983,0.11110186851479491,0.44860471255700335,0.6360999913152963,0.15942105786250926,0.476678933452787,55.800473159833665
60.934,2019-12-12,61.2597,59.0753,59.3056,3754800,0.4597299493402929,0.14256327826290807,0.31716667107738483,56.786225,56.87766153846154,57.314486663344674,56.85475671400438,0.3760901248670579,0.7340449836530502,-0.35795485878599226,0.04278689226480837,25.047829989557414,0.29788000000001347,19.917338278274226,18.49681840010984,1.4205198781643844,57.54215,57.54215,57.54215,56.26325,79.09135800301436,13.642035756889246,54.179408916619366,32.227558449522334,169.9936387335674,56.697975,60.581450000000004,96.0,72.0,24.0,55.90666656,58.2492854474,0.0,0.0,18474.542180680266,333.2858,11.392262593162386,18.397163827674195,-2534743.558604403,-639767.7465059337,0.16027476204319444,57.67578290666849,72.43518435083816,576.074043986712,56.77561999999999,59.274232217692045,54.27700778230793,8.80170826031334,0.9601914582255988,0.0,0.0,57.55805,56.49998999999999,58.616110000000006,-3.676497032126725,-0.21699620059353386,1.0,0.0,55.6993,59.385,57.54215,6.491694850712326,0.9159725425292347,1.9339695634646596,2.874917663482575,60.899757575764056,1.0,1.0,0.9581060643142605,7.3521931215189875,20.43413970092433,91.59725425292348,89.46930117248057,-8.40274574707653,1.1639864705882417,3.1915413934411943,0.808604197627413,0.25060233433731854,0.5580018632900945,0.9980177604616413,0.32714039838233566,0.6708773620793056,56.000009078836655
