close,date,high,low,open,volume,volumetrend_macd,volumetrend_macd_signal,volumetrend_macd_diff,volumetrend_sma_fast,volumetrend_sma_slow,volumetrend_ema_fast,volumetrend_ema_slow,volumetrend_vortex_ind_pos,volumetrend_vortex_ind_neg,volumetrend_vortex_ind_diff,volumetrend_trix,volumetrend_mass_index,volumetrend_dpo,volumetrend_kst,volumetrend_kst_sig,volumetrend_kst_diff,volumetrend_ichimoku_conv,volumetrend_ichimoku_base,volumetrend_ichimoku_a,volumetrend_ichimoku_b,volumetrend_stc,volumetrend_adx,volumetrend_adx_pos,volumetrend_adx_neg,volumetrend_cci,volumetrend_visual_ichimoku_a,volumetrend_visual_ichimoku_b,volumetrend_aroon_up,volumetrend_aroon_down,volumetrend_aroon_ind,volumetrend_psar_up,volumetrend_psar_down,volumetrend_psar_up_indicator,volumetrend_psar_down_indicator,volume_adi,volume_obv,volume_cmf,volume_fi,volume_em,volume_sma_em,volume_vpt,volume_vwap,volume_mfi,volume_nvi,volumevolatility_bbm,volumevolatility_bbh,volumevolatility_bbl,volumevolatility_bbw,volumevolatility_bbp,volumevolatility_bbhi,volumevolatility_bbli,volumevolatility_kcc,volumevolatility_kch,volumevolatility_kcl,volumevolatility_kcw,volumevolatility_kcp,volumevolatility_kchi,volumevolatility_kcli,volumevolatility_dcl,volumevolatility_dch,volumevolatility_dcm,volumevolatility_dcw,volumevolatility_dcp,volumevolatility_atr,volumevolatility_ui,momentum_rsi,momentum_stoch_rsi,momentum_stoch_rsi_k,momentum_stoch_rsi_d,momentum_tsi,momentum_uo,momentum_stoch,momentum_stoch_signal,momentum_wr,momentum_ao,momentum_roc,momentum_ppo,momentum_ppo_signal,momentum_ppo_hist,momentum_pvo,momentum_pvo_signal,momentum_pvo_hist,momentum_kama
103.499,2019-08-12,105.917,103.287,105.595,1221700,0.0,0.0,0.0,103.287,103.287,103.287,103.287,0.0,0.0,0.0,-18.54937212094591,1.0,23.87497355043685,-187.75246155618376,-187.75246155618376,0.0,105.756,105.756,105.756,105.756,0.0,0.0,0.0,0.0,0.0,129.21437009531374,128.64256699761714,0.0,0.0,0.0,102.81082,105.595,0.0,0.0,1587.1989503105417,103.499,15.335403726707908,0.0,0.0,0.0,0.0,104.93299999999999,50.0,1000.0,103.287,103.287,103.287,0.0,0.0,0.0,0.0,104.93299999999999,104.61099999999999,105.255,-0.6137249483003493,3.05590062111797,0.0,1.0,105.917,105.595,105.756,-0.31175268910899023,8.167701863353955,0.0,0.0,100.0,0.0,0.0,0.0,0.0,-0.0,816.7701863353954,816.7701863353954,716.7701863353954,0.0,0.0,0.0,0.0,0.0,0.0,0.0,0.0,103.287
103.995,2019-08-13,105.54,102.754,103.204,986800,-0.042518518518534165,-0.008503703703706834,-0.034014814814827335,103.0205,103.0205,103.205,103.24751851851853,0.11389601227958761,0.0023089866109017535,0.11158702566868585,-0.0010078863990686392,2.8004769475357687,24.141473550436856,-189.84821386765836,-188.80033771192106,-1.047876155737299,105.5675,105.5675,105.5675,105.5675,0.0,0.0,0.0,0.0,-66.66666666666752,129.21437009531374,128.64256699761714,0.0,4.0,-4.0,102.81082,105.595,0.0,0.0,1731.2605170913623,-0.4960000000000093,8.343665441368726,-55.42933500000013,3108826.385883955,3108826.385883955,-0.5366535478811505,104.38151819811657,0.0,1000.0,103.0205,103.55349999999999,102.48750000000001,1.0347455118155844,0.25,0.0,0.0,104.38283333333334,103.05383333333333,105.71183333333335,-2.546395719602695,1.1128041133684436,0.0,1.0,105.54,105.595,105.5675,0.05338743259835917,-50.654545454552284,0.0,0.0,0.0,0.0,0.0,0.0,-100.0,-27.602278612118177,-5065.454545455228,-2124.3421795599165,-5165.454545455228,0.0,0.0,-0.04118115295033267,-0.008236230590066534,-0.03294492236026614,0.03821574200742113,0.007643148401484227,0.030572593605936903,102.7667411741921
101.356,2019-08-14,102.975,101.025,102.312,1249000,-0.21327213253141508,-0.049457389469248485,-0.1638147430621666,102.35533333333335,102.35533333333335,102.86961538461537,103.08288751714679,0.2448687856183506,0.011705560531157948,0.23316322508719264,-0.005915246564690309,4.334136340995045,24.806640217103507,-195.07907532800553,-190.8932502506159,-4.185825077389637,104.285,104.285,104.285,104.285,0.0,0.0,0.0,0.0,-100.00000000000047,129.21437009531374,128.64256699761714,0.0,8.0,-8.0,102.81082,105.595,1.0,0.0,2226.116281797244,-101.852,7.207758723643336,-72.54579057142867,1130663.7002249465,2119745.043054451,-2.242129967290615,103.63409992229236,0.0,983.1734044416762,102.35533333333335,104.28638647144794,100.42428019521876,3.773234037206187,0.15554201821907648,0.0,0.0,103.62322222222222,102.51622222222221,104.73022222222222,-2.136586715333019,1.6735421057914168,0.0,1.0,102.975,105.595,104.285,2.5597102902959015,-0.7442748091602998,0.0,0.0,0.0,0.0,0.0,0.0,-100.0,-95.32237673830578,-74.42748091602998,-1441.0372800119542,-174.42748091602996,0.0,0.0,-0.206893828518278,-0.04796775017570883,-0.15892607834256917,-0.13581978620845714,-0.021049438520504046,-0.11477034768795309,101.3116960239882
100.804,2019-08-15,101.945,100.188,101.457,890900,-0.4113922331679305,-0.1218443582089849,-0.28954787495894563,101.8135,101.8135,102.45705917159762,102.86845140476555,0.29620394863255745,0.02585182605708451,0.2703521225754729,-0.014796141938023708,5.655657220784217,25.34847355043685,-199.34004516202924,-193.00494897846923,-6.335096183560012,103.77,103.77,103.77,103.77,0.0,0.0,0.0,0.0,-88.8034970011184,129.21437009531374,128.64256699761714,0.0,12.0,-12.0,102.81082,105.595,0.0,1.0,2851.183708026749,-202.656,6.959980149166734,-74.23538448979605,456271.57652474183,1565253.887544548,-3.0772989650634512,103.0343181017802,0.0,975.0277361465246,101.8135,104.32740632283704,99.29959367716297,4.938257348656181,0.17669837471000724,0.0,0.0,103.01658333333333,102.06433333333332,103.96883333333334,-1.8487314744632666,1.9852104664391221,0.0,1.0,101.945,105.595,103.77,3.5849862739224228,-0.48136986301369533,0.0,0.0,0.0,0.0,0.0,0.0,-100.0,-94.10871545703039,-48.13698630136953,-1729.3396708908758,-148.13698630136952,0.0,0.0,-0.39992070216862624,-0.11835834057429233,-0.2815623615943339,-0.31384625208139083,-0.07960880123268141,-0.23423745084870942,100.56913058855329
101.816,2019-08-16,102.478,100.363,100.363,855600,-0.5479661896988972,-0.20706872450696737,-0.34089746519192987,101.52340000000001,101.52340000000001,102.13489622212106,102.68286241181995,0.3290990355462193,0.060862027146695835,0.26823700839952347,-0.025600584239122207,7.262726864561559,25.638573550436845,-201.62138754686518,-194.7282366921484,-6.893150854716765,103.77,103.77,103.77,103.77,0.0,0.0,0.0,0.0,-73.97951112714082,129.21437009531374,128.64256699761714,0.0,12.0,-12.0,102.81082,105.522,0.0,0.0,2952.999708026749,-100.84,5.773554085335893,-61.084929562682376,582676.1019878909,1319609.4411553836,-2.899455311132849,102.64289212596371,0.0,975.0277361465246,101.52340000000001,104.05367827718614,98.99312172281388,4.984620840488256,0.270697158003809,0.0,0.0,102.62686666666666,101.44206666666666,103.81166666666665,-2.30894703985895,1.4553792482556829,0.0,1.0,101.945,105.595,103.77,3.595230262185866,-0.43342465753424414,0.0,0.0,6.098017052351537,0.0,0.0,0.0,-99.32078721660311,-52.37327601647887,-43.34246575342441,-55.30231099027464,-143.34246575342442,0.0,0.0,-0.5336491180984259,-0.20141649607911905,-0.3322326220193068,-0.37167939390746474,-0.13802291976763809,-0.23365647413982665,100.47317575151492
102.644,2019-08-19,103.646,102.404,102.975,737200,-0.4859091335371204,-0.262836806312998,-0.2230723272241224,101.67016666666666,101.67016666666666,102.1762968033332,102.66220593687032,0.31012870111424734,0.16111215286444677,0.14901654824980057,-0.033323415033331034,8.633624804542885,25.491806883770195,-200.46721651154033,-195.68473332871372,-4.78248318282661,103.77,103.77,103.77,103.77,0.0,0.0,0.0,0.0,17.17080782619128,129.21437009531374,128.64256699761714,0.0,12.0,-12.0,102.81082,105.45046,0.0,0.0,3230.3373712160164,1.804000000000002,5.260159141814087,-22.43045333944209,-1235522.7777561403,808582.9973730787,-0.8120684853105824,102.70397255612693,20.25069195982256,975.0277361465246,101.67016666666666,104.0714300609841,99.26890327234922,4.723634224364288,0.6528015075459744,0.0,0.0,102.69044444444444,101.59127777777776,103.78961111111111,-2.1407379676135796,0.6303007328784409,1.0,1.0,101.945,105.595,103.77,3.5900403428734475,0.12575342465753492,0.0,0.0,46.82518765456893,0.0,0.0,0.0,-91.20135784309191,-9.959395443266539,12.575342465753492,-26.301369863013488,-87.4246575342465,-0.5110833333333318,0.0,-0.4733086817128386,-0.255794933205863,-0.21751374850697558,-0.348546645823509,-0.18012766497881227,-0.16841898084469675,101.0761421169458
101.43,2019-08-20,102.257,100.952,102.257,1249400,-0.5475805666464311,-0.31978555837968464,-0.22779500826674642,101.56757142857143,101.56757142857143,101.98794344897425,102.53552401562068,0.35360201128142965,0.1835805079161293,0.17002150336530036,-0.04133459037731348,9.70953117825678,25.59440212186543,-201.2740240439395,-196.48320343088884,-4.79082061305067,103.77,103.77,103.77,103.77,0.0,0.0,0.0,0.0,-42.62453450505609,129.21437009531374,128.64256699761714,0.0,12.0,-12.0,102.81082,105.3803508,0.0,0.0,3230.3373712160164,-99.626,4.5145195420771005,-40.265582862378906,-0.0,673819.1644775657,-2.2502580091573,102.57895092731312,16.90647108179003,961.2026875850939,101.56757142857143,103.84681713265684,99.28832572448601,4.48813666021013,0.3649615906990516,0.0,0.0,102.56638095238095,101.62423809523808,103.50852380952381,-1.8371377607254677,1.3567601718473523,0.0,1.0,101.945,105.595,103.77,3.593666707455844,-0.27205479452054615,0.0,0.0,35.1463827078225,0.0,0.0,0.0,-85.5056932561843,-24.27604571174994,-27.205479452054615,-19.324200913241846,-127.20547945205462,-0.7992857142857304,0.0,-0.5340398577989521,-0.31144391812448086,-0.22259593967447128,-0.4208258601105246,-0.22826730400515477,-0.19255855610536982,101.03977059486056
101.798,2019-08-21,102.91,101.614,102.45,697700,-0.5368492898329578,-0.36319830467033926,-0.1736509851626185,101.573375,101.573375,101.9304136875936,102.46726297742656,0.33840562844434113,0.1925138494189653,0.14589177902537584,-0.04786552186254776,10.708112672240382,25.588598550436856,-201.22838483855023,-197.07635110684652,-4.15203373170371,103.77,103.77,103.77,103.77,0.0,0.0,0.0,0.0,-13.539791141518792,129.21437009531374,128.64256699761714,0.0,12.0,-12.0,102.81082,105.311643784,0.0,0.0,3230.3373712160164,2.171999999999997,4.5294980206768045,-24.886174453467547,-191143.2444645228,550253.1060572673,-1.5827103033168841,102.54728042810314,28.77036701206859,961.2026875850939,101.573375,103.70563528840289,99.44111471159711,4.198463009431142,0.5095262759947649,0.0,0.0,102.53616666666667,101.65429166666667,103.41804166666667,-1.7201247689839536,1.0228443184502687,0.0,1.0,101.945,105.595,103.77,3.5934613770587083,-0.09068493150684612,0.0,0.0,42.22189992159629,0.0,0.0,0.0,-79.2147720171197,-13.68276780796487,-9.068493150684612,-7.8995433789952445,-109.06849315068462,-0.7437625000000025,0.0,-0.5239227380858462,-0.353939682116754,-0.16998305596909224,-0.44418217695832496,-0.27145027859578885,-0.1727318983625361,101.20241036774782
101.246,2019-08-22,102.285,100.648,101.954,602200,-0.5993834827587676,-0.410435340288025,-0.18894814247074265,101.47055555555556,101.47055555555556,101.73311927411767,102.33250275687644,0.3601446281252602,0.19358221109316476,0.16656241703209546,-0.05486327528465286,11.624681830300426,25.69141799488129,-202.03695552657646,-197.62752937570542,-4.409426150871042,103.77,103.77,103.77,103.77,0.0,0.0,0.0,0.0,-54.14438835144717,129.21437009531374,128.64256699761714,0.0,12.0,-12.0,102.81082,105.24431090832,0.0,0.0,3230.3373712160164,-99.074,5.010245421961951,-35.30295467440087,183242.30093041036,504376.75541641016,-2.5452118877442307,102.44606832842,25.21420637552221,952.0649526646381,101.47055555555556,103.56331983300959,99.37779127810154,4.124870049239507,0.30347630059983227,0.0,0.0,102.43537037037036,101.6147037037037,103.25603703703703,-1.6023111230025822,1.5889746367000603,0.0,1.0,101.945,105.595,103.77,3.59710260776252,-0.3553424657534233,0.0,0.0,36.04254358126254,0.0,0.0,0.0,-74.89232868328598,-20.701109892922904,-35.53424657534233,-23.93607305936052,-135.53424657534234,-0.5602777777777703,0.0,-0.5857215123359141,-0.400296048160586,-0.18542546417532807,-0.5005430106289886,-0.3172688250024288,-0.18327418562655984,101.04984958619484
97.9721,2019-08-23,101.089,97.4663,100.841,974300,-0.895357753766092,-0.5074198229836384,-0.38793793078245353,101.07013,101.07013,101.07668553963802,101.97204329340411,0.3979751126300451,0.21653142962326935,0.18144368300677574,-0.06780191427961327,12.465778544278338,26.09184355043685,-205.1858965533271,-199.56457770872132,-5.621318844605781,102.1465,103.342,102.74425,103.342,0.0,0.0,0.0,0.0,-146.15787973828392,129.21437009531374,128.64256699761714,0.0,36.0,-36.0,102.81082,105.1783246901536,0.0,0.0,3230.3373712160164,-197.0461,7.246660307710632,-74.79079408805778,292242.38329075836,480806.2696246711,-5.642320926870687,102.19093171314711,22.56397580894624,921.9681294799442,101.07013,104.18685241439626,97.95340758560376,6.167445148029888,-0.0781442042053192,0.0,1.0,102.17170999999999,101.40831,102.93511000000001,-1.4943471142843834,3.581877128635037,0.0,1.0,101.089,105.595,103.342,4.458290495916054,-0.8039724811362615,1.208299999999997,0.0,23.72585193577821,0.0,0.0,0.0,-73.04197008226056,-40.20170445575985,-80.39724811362615,-41.666662613217696,-180.39724811362615,-0.4560999999999922,0.0,-0.8780423779387058,-0.49584531411621,-0.38219706382249574,-0.7955538582858421,-0.41292583165911145,-0.3826280266267307,100.02212586681125
98.5514,2019-08-26,99.3146,97.8525,98.7537,1168800,-1.086234943258816,-0.623182847038674,-0.4630520962201421,100.7776181818182,100.7776181818182,100.58065699507833,101.66689193833714,0.44263481063802934,0.2479713056209102,0.19466350501711915,-0.08332045042876675,13.34283252933449,26.384355368618657,-206.89149240885268,-201.45827532440956,-5.433217084443129,101.1448,102.4548,101.7998,102.4548,0.0,0.0,0.0,0.0,-169.39039873833943,129.21437009531374,128.64256699761714,0.0,40.0,-40.0,102.81082,105.01475170254746,0.0,0.0,3230.3373712160164,-98.4947,6.9785872427100495,-58.66917340690664,1098932.9070921435,542618.9333714184,-5.251821331831174,101.87713079614312,20.429080336336284,921.9681294799442,100.7776181818182,104.27810357862006,97.27713278501633,6.946950046956764,0.0821839187658578,0.0,0.0,101.54243666666666,100.75514666666666,102.32972666666667,-1.5506620204209647,2.8434418490433218,0.0,1.0,99.3146,105.595,102.4548,6.231939306869904,-0.23280364308005738,1.2722999999999969,0.0,26.98733093380247,0.0,0.0,0.0,-70.7249544532754,-28.02141337035934,-23.280364308005737,-46.4039529989914,-123.28036430800574,-0.9760654545454486,0.0,-1.068425445638328,-0.6103613404206336,-0.45806410521769436,-0.9738269214387066,-0.5251060496150305,-0.44872087182367615,99.77417000278368
98.7721,2019-08-27,99.6641,98.3583,99.4618,1861700,-1.1830551351034444,-0.7351573046516281,-0.4478978304518163,100.57600833333333,100.57600833333333,100.23875591891243,101.42181105401588,0.4252379297180716,0.2602262145379236,0.165011715180148,-0.09880030000736849,14.148047072432195,2.710991666666672,-207.76241046755572,-202.8675347843596,-4.894875683196119,101.1448,102.4548,101.7998,102.4548,0.0,0.0,0.0,0.0,-119.26693475528438,129.21437009531374,128.64256699761714,0.0,40.0,-40.0,102.81082,104.67274260039461,0.0,0.0,3230.3373712160164,0.2774000000000001,7.379812357833543,-43.15087318020578,-108306.13098233723,483443.9275210769,-4.741267915413609,101.65615537990901,27.354259986715647,921.9681294799442,100.57600833333333,104.18443304176067,96.967583624906,7.175517836158578,0.19270408661237096,0.0,0.0,101.07530999999999,100.50138999999999,101.64923,-1.1356284734620319,2.8670633537774917,0.0,1.0,99.3146,105.595,102.4548,6.244431553880353,-0.1522673715049995,1.3262299999999971,0.0,31.140253912463237,0.0,0.0,0.0,-67.76363410065522,-23.465655992248966,-15.226737150499948,-39.634783190710614,-115.22673715049994,-1.2795216666666533,0.0,-1.1664701337992922,-0.7215830990963654,-0.4448870347029268,-1.0860436981753547,-0.6372935793270954,-0.4487501188482593,99.65813292687834
100.262,2019-08-28,100.501,98.1744,98.4686,1090800,-1.260099386433538,-0.8401457210080101,-0.4199536654255278,100.14995833333334,100.39126923076924,99.92116270061821,101.18126208705175,0.4323867854470345,0.2723347866008995,0.16005199884613502,-0.11376670633084356,15.403735168117242,2.3627307692307653,-207.6911385108816,-203.7954340453432,-3.895704465538387,101.1448,102.4548,101.7998,102.4548,0.0,0.0,0.0,0.0,-106.81510537473548,129.21437009531374,128.64256699761714,0.0,40.0,-40.0,102.81082,104.35125404437093,0.0,0.0,3230.3373712160164,-99.9846,6.915156157547781,-39.62048869731915,158417.00744050829,456358.3508476962,-4.928727253364742,101.45716763098649,25.136161799595158,921.9681294799442,100.39126923076924,104.08684822142997,96.6956902401085,7.362351365766108,0.20006469400713872,0.0,0.0,100.76970999999999,100.05884999999999,101.48057,-1.4108604659078685,2.3254719635371077,0.0,1.0,99.3146,105.595,102.4548,6.255922500156119,-0.1815489459270099,1.4078769999999978,0.0,30.461832930401854,0.0,0.0,0.0,-65.60918561749475,-37.76342033043985,-18.15489459270099,-18.887332017068893,-118.15489459270098,-1.7134046153846043,-4.949896889250342,-1.2453880891003375,-0.82634409709716,-0.41904399200317755,-1.0442491967462737,-0.7186847028109311,-0.3255644939353426,99.57983949636024
101.283,2019-08-29,102.147,101.218,101.512,586200,-1.0633072826444732,-0.8847780333353028,-0.17852924930917036,100.02195833333333,100.45032142857143,100.12067613129233,101.1839834139368,0.41623260481060714,0.3316877142536015,0.08454489055700565,-0.12175699793669005,16.563841060837,0.5746785714285778,-204.8763526871935,-204.15709683871302,-0.7192558484804863,101.1448,102.4548,101.7998,102.4548,0.0,0.0,0.0,0.0,8.784015002190296,129.21437009531374,128.64256699761714,0.0,40.0,-40.0,102.81082,104.04905480170868,0.0,0.0,3230.3373712160164,1.2984000000000009,6.55814888913962,10.077429516583557,-1470024.0909135924,308175.0860968279,-1.7887545232029125,101.46922481835067,30.94030775864087,921.9681294799442,100.45032142857143,104.03683990529471,96.86380295184814,7.140880040435907,0.6070228100609065,0.0,0.0,100.81260999999999,100.08705,101.53817000000001,-1.4394231039152772,0.22063647389602778,1.0,1.0,99.3146,105.595,102.4548,6.2522448018903445,0.30306986816126436,1.6643492999999978,3.249168256075645,49.91129050735822,0.4991129050735822,0.0,0.0,-57.07219374704816,-2.585123789992006,30.30698681612644,-1.0248816423581673,-69.69301318387356,-1.7630342857142693,-1.4948323179632923,-1.050865212821831,-0.8712483202420942,-0.1796168925797368,-0.9188576102062368,-0.7587192842899922,-0.16013832591624455,99.60103593898549
101.88,2019-08-30,102.542,101.586,102.211,762500,-0.8676518476798947,-0.8813527962042211,0.013700948524326462,100.06870833333333,100.52603333333333,100.34611057263197,101.21376242031187,0.7774355221619981,0.6611754494941341,0.11626007266786398,-0.1237867324688848,17.58779960598796,-0.3380333333333283,-201.92798575752008,-204.3194045327108,2.391418775190715,100.8823,102.4548,101.66855000000001,102.4548,0.0,0.0,0.0,0.0,31.270183076111238,129.21437009531374,128.64256699761714,0.0,40.0,-40.0,102.81082,103.76498751360616,0.0,0.0,3230.3373712160164,103.1784,6.438515344316483,13.993773871357263,-177715.9403219481,273468.5842097724,-1.4183476785705398,101.26204737945147,35.958611917085435,921.9681294799442,100.52603333333333,104.03695659930705,97.01511006735961,6.985102564092783,0.6509526962522062,0.0,0.0,100.91711000000001,100.36994999999999,101.46427000000001,-1.084375087633826,-0.11123802909567813,1.0,0.0,99.3146,105.595,102.4548,6.247535878765733,0.36166486211069354,1.6303143699999978,3.2633396285712464,51.67137540664663,1.0,0.0,0.0,-50.00738704391187,-2.977682629053457,58.399753175297036,23.51728179957416,-41.600246824702964,-1.5099466666666501,0.5553080920564146,-0.8572469068749606,-0.8684480375686675,0.011201130693706873,-0.7629472098066543,-0.7595648693933247,-0.003382340413329632,99.630625598637
101.549,2019-09-03,101.715,100.188,100.952,848500,-0.8159941496571577,-0.8682810668948084,0.052286917237650776,100.06870833333335,100.50490625,100.32178586915013,101.13778001880729,0.7836346023796917,0.7302377862665194,0.053396816113172374,-0.12414937638972477,18.629741601157296,-0.14190625000000523,-198.07624584825243,-203.96409584430108,5.887849996048658,100.8823,102.4548,101.66855000000001,102.4548,0.0,0.0,56.97469885194696,77.32488954985189,-25.962709985088324,129.21437009531374,128.64256699761714,0.0,40.0,-40.0,102.81082,103.4979642627898,0.0,0.0,3230.3373712160164,1.6293999999999897,6.222985818301497,-8.286122681693719,783669.9524367594,107385.98182068704,-2.81583849423411,101.05030151624759,36.09641097750329,909.2802448795765,100.50490625,103.90827987220838,97.10153262779163,6.7725522050489495,0.4534423361672574,0.0,0.0,100.71144333333334,100.15508333333334,101.26780333333333,-1.1048595503860776,0.9704178349749575,1.0,1.0,99.3146,105.595,102.4548,6.248849169987659,0.1390675753136749,1.530682932999998,3.311321521301634,45.17676715272203,0.8743093598184115,0.7911407549639979,0.0,-45.63107411520093,-7.087873930602725,23.86078024259657,37.52250674467334,-76.13921975740344,-1.0104499999999916,0.0,-0.8068143768880608,-0.8561213054325463,0.049306928544485484,-0.6582348809920593,-0.7392988717130717,0.08106399072101245,99.64757168815521
102.552,2019-09-04,102.901,101.908,102.46,958100,-0.6290145383896828,-0.8204277611937834,0.19141322280410056,100.19745833333333,100.58744117647059,100.5658188123578,101.19483335074749,0.6071733136834442,0.7327890976229722,-0.125615783939528,-0.11985448516777265,19.603391596745137,1.8165588235294052,-191.9146388277724,-202.9292351764369,11.014596348664497,100.8873,102.4548,101.67105000000001,102.4548,0.0,0.0,58.58599753282021,64.06820449243628,48.27818352591372,129.21437009531374,128.64256699761714,0.0,40.0,-40.0,102.81082,103.24696240702241,0.0,0.0,3230.3373712160164,104.1814,6.060968117626463,18.096100558548223,-579244.6758717536,-14750.330757648684,-1.0552539930962512,101.0743531112292,43.41414974173617,909.2802448795765,100.58744117647059,103.95457212069758,97.2203102322436,6.694933094718439,0.6960955551481499,0.0,0.0,100.77154333333333,100.17108333333333,101.37200333333334,-1.1917253227209124,-0.44632170891204864,1.0,0.0,99.3146,105.595,102.4548,6.243721807160466,0.41293548181644524,1.6489146396999979,3.261751737059921,53.00340580272324,1.0,0.9581031199394706,0.0,-39.22694615524342,18.12426677238625,70.8501803081632,51.036904575352274,-29.149819691836804,-0.43121058823530234,1.5394119346771238,-0.6215876024119531,-0.8092145648284277,0.18762696241647459,-0.48964366723433406,-0.6893678308173242,0.19972416358299017,99.67536382219521
104.225,2019-09-05,104.998,103.425,103.83,1047100,-0.35433803909592143,-0.727209816774211,0.3728717776782896,100.28254166666666,100.74508333333333,101.00569284122582,101.36003088032174,0.5347524519300166,0.754852580319227,-0.22010012838921034,-0.10947637956418041,20.708875206971257,0.20691666666667174,-184.30347264202774,-200.9588481892648,16.65537554723707,101.5723,102.4548,102.01355000000001,102.4548,0.0,0.0,60.30079547110934,55.41334990697816,123.98870070906274,129.21437009531374,128.64256699761714,0.0,40.0,-40.0,99.3146,103.24696240702241,1.0,0.0,3230.3373712160164,208.4064,5.811630118429099,38.097989764469844,-1942650.9954425704,-186101.94304102813,0.49623681233608696,101.28719888962932,50.78214447417665,909.2802448795765,100.74508333333333,104.26610266380504,97.22406400286161,6.989957651475233,0.880559777601056,0.0,0.0,100.94751,100.27624999999999,101.61877000000001,-1.3299188855673822,-1.345402675565322,1.0,0.0,99.3146,105.595,102.4548,6.233951863655878,0.6544806063308067,1.7930231757299986,3.161645998125143,58.61510423630003,1.0,0.9581031199394706,0.9024489982809797,-31.917749864092382,24.10778143803611,91.03069495504272,61.913885168600835,-8.969305044957283,0.41897222222222297,0.9970313659622679,-0.3495835942614274,-0.7172883707150276,0.3677047764536002,-0.22075203327871226,-0.5956446713096019,0.37489263803088957,99.75605089217005
106.469,2019-09-06,106.782,104.575,105.016,1058000,-0.043359721539872,-0.5904397977273432,0.5470800761874712,100.58445833333333,100.94665789473684,101.55481701949878,101.59817674103866,0.4568287020136386,0.7959420586130874,-0.3391133565994488,-0.09303172977889923,22.011473547874488,0.6673421052631596,-174.93594400344043,-197.59774235038853,22.661798346948103,102.1653,102.4548,102.31005,102.4548,100.0,0.0,61.83171692006218,49.4574128863478,167.8703979808377,129.21437009531374,128.64256699761714,0.0,40.0,-40.0,99.40490799999999,103.24696240702241,0.0,0.0,3230.3373712160164,314.8754,5.574005575262263,50.146755512402805,-2463167.682611827,-403662.2133695794,1.6800835611879166,101.61546332593429,58.23015346803423,909.2802448795765,100.94665789473684,104.77687968208507,97.11643610738862,7.58860544217764,0.973646476197292,0.0,0.0,101.33037666666667,100.51561666666666,102.14513666666667,-1.6081258686725632,-1.491152813916558,1.0,0.0,99.3146,105.595,102.4548,6.221503644577269,0.8375899624227763,1.9494208581569985,3.069781474038131,62.29105174288172,1.0,1.0,0.9720687466263138,-24.688795983013907,25.781728068890253,92.26505770512502,84.71531098944365,-7.734942294874978,1.033336842105271,3.5888342974879195,-0.0426776571496855,-0.5823662280019593,0.5396885708522737,0.1667943802408367,-0.4431568609995142,0.6099512412403509,100.03425024798469
107.14,2019-09-09,107.214,105.623,106.855,1174600,0.2843795269332787,-0.4154759327952188,0.6998554597284976,100.91854166666667,101.180475,102.18069132419129,101.89631179725801,0.4519761338656863,0.7745427900647505,-0.32256665619906416,-0.0710173932132016,23.120948946711806,-0.5324750000000051,-163.01770370185275,-192.72287693849964,29.705173236646885,103.25955,103.0848,103.17217500000001,103.0848,100.0,0.0,64.51023526086075,42.42079670255417,187.0111388918785,129.21437009531374,128.64256699761714,76.0,40.0,36.0,99.62935168,103.24696240702241,0.0,0.0,3230.3373712160164,422.0154,5.694294037713146,59.02332186777386,-380478.3460892235,-342587.61110765673,2.753788748852282,101.88716947127007,58.47296674079912,909.2802448795765,101.180475,105.4339467978964,96.9270032021036,8.407692883229487,1.0222233990357132,1.0,0.0,102.0069,101.18104,102.83276000000001,-1.6192237976058597,-1.6892935848690926,1.0,0.0,99.3146,106.855,103.0848,7.452425974477789,0.8366134422577054,2.0183787723412983,3.0612668140919665,65.31463434764521,1.0,1.0,0.9860343733131568,-17.74989647499159,28.598251822356282,83.66134422577053,88.98569896197942,-16.338655774229462,1.7285799999999938,3.945322494931801,0.27908716411552326,-0.41007554957846276,0.689162713693986,0.5184690786814267,-0.25083167306332604,0.7693007517447528,101.42240120576119
107.839,2019-09-10,107.839,106.432,107.048,938800,0.6024501116124128,-0.2118907239136925,0.8143408355261053,101.40054166666665,101.43054761904763,102.83473881277725,102.23228870116483,0.37708809016524325,0.7281648402745496,-0.3510767501093064,-0.04451088683856258,24.198548785240515,-3.871425000000002,-147.54544579074127,-186.03210308552025,38.48665729477898,103.7745,103.1813,103.4779,103.1813,100.0,0.0,60.05609039546827,38.7134823889379,190.0562253412339,129.21437009531374,128.64256699761714,80.0,40.0,40.0,100.0628905792,103.24696240702241,0.0,0.0,3230.3373712160164,529.8543999999999,5.04048591451445,63.05452602952041,-300001.8546166024,-364016.3150088427,3.57976179449575,102.28495095700298,65.87297145430458,909.2802448795765,101.337725,106.0939131307934,96.58153686920662,9.386806602957368,1.035541788918914,1.0,0.0,102.85350666666668,102.00463666666666,103.70237666666667,-1.6506389086977264,-1.60779821016959,1.0,0.0,99.3146,107.048,103.1813,7.631314004730225,0.9203455142628082,2.038140895107168,3.0010502795006384,67.48219174572796,1.0,1.0,1.0,-11.392615425082965,25.329095921698723,92.03455142628081,89.32031778572546,-7.9654485737191845,2.717257142857136,5.74676098879263,0.5892953383577615,-0.2102013719912179,0.7994967103489794,0.8397233284741703,-0.03272067275582677,0.8724440012299971,102.69713907115164
108.216,2019-09-11,108.4,107.113,107.821,892900,0.8991099701318319,0.010309414895412372,0.8888005552364195,102.20443333333334,101.68884090909091,103.49293284158075,102.59382287144892,0.3708868399691973,0.7521593439756916,-0.3812725040064943,-0.014734716554363106,25.209538778652103,-3.7031750000000017,-131.11675833697907,-177.5238386217533,46.407080284774224,104.768,103.5678,104.1679,103.5678,100.0,0.0,59.68597704799527,35.46039163171923,182.57481974404217,129.21437009531374,128.64256699761714,84.0,40.0,44.0,100.621699332864,103.24696240702241,0.0,0.0,3230.3373712160164,638.0704,5.1418291497089985,64.57460745387459,-356872.36637836,-375854.1094312596,4.272176632138553,102.69552858877891,66.1611210603042,909.2802448795765,101.55567500000001,106.91299802698839,96.19835197301163,10.550514340017694,1.0186662230375196,1.0,0.0,103.71516666666666,102.82862666666668,104.60170666666667,-1.709566746104308,-1.4163451921703123,1.0,0.0,99.3146,107.821,103.5678,8.376095181288488,0.9167685507382678,2.0311268055964513,2.9696635355762395,69.22559278038806,1.0,1.0,1.0,-5.6392734124530035,25.88246141342822,91.67685507382679,89.12425024195939,-8.323144926173216,3.5608272727272947,9.89747225451258,0.8763782701210244,0.007114556431230545,0.8692637136897938,1.1084210797321188,0.19550767774176234,0.9129134019903564,103.8314441290535
108.704,2019-09-12,108.869,107.591,108.602,851900,1.1594205718763106,0.24013164629159203,0.9192889255847186,103.01597499999998,101.94545652173913,104.12340471210679,102.96398414023048,0.3322279127609218,0.7543960525787955,-0.4221681398178737,0.016890805505328024,26.10996222222565,-3.5256749999999926,-114.09788443610873,-167.43734214941054,53.33945771330181,105.1585,103.95830000000001,104.5584,103.95830000000001,100.0,0.0,59.046213425222696,32.32461949151896,160.87247954207544,129.21437009531374,128.64256699761714,88.0,40.0,48.0,101.3416293995776,103.24696240702241,0.0,0.0,3230.3373712160164,746.7743999999999,5.336114056280829,62.772593817606705,-153513.21018545542,-399908.0745109642,4.757276591994035,103.19578659764704,73.39719952966391,909.2802448795765,101.88397499999999,107.8420361641288,95.92591383587119,11.695776816970103,0.9789330658738284,0.0,0.0,104.64576666666667,103.93576666666665,105.35576666666668,-1.3569588577082399,-1.574107981220609,1.0,0.0,99.3146,108.602,103.95830000000001,9.115663184519455,0.8911428386846686,2.003614125036806,2.890087879973795,70.42420295236953,1.0,1.0,1.0,-0.5729729975866964,32.00909311960524,89.11428386846686,90.94189678952482,-10.885716131533146,4.1766043478261,9.952224010628228,1.1260447830935258,0.23090060176368962,0.8951441813298362,1.3413122058187172,0.42466858335715335,0.916643622461564,104.88275839192359
109.779,2019-09-13,110.258,109.099,109.108,843900,1.470451150771538,0.4861955471875813,0.9842556035839568,103.91103333333335,102.24352083333333,104.88888091024421,103.41842975947267,0.27172424951461166,0.7267573555035601,-0.45503310598894847,0.05123412134455782,27.132463561486148,-4.155125000000012,-97.10109269495781,-155.78990958690363,58.68881689194582,105.4115,104.2113,104.81139999999999,104.2113,100.0,0.0,56.774047326301414,29.46575176616474,157.3228977155704,129.21437009531374,128.64256699761714,92.0,40.0,52.0,102.21287387162829,103.24696240702241,0.0,0.0,3230.3373712160164,856.5533999999999,5.064104821054953,77.45461355794876,-992562.3297716227,-491679.83972970577,6.295943692402063,103.89822110364143,80.24908176424711,909.2802448795765,102.32952500000002,109.00339078644643,95.6556592135536,13.043871329308745,1.0071629559698174,1.0,0.0,105.43203333333334,104.67053333333334,106.19353333333333,-1.4445325124147874,-1.9077259794265768,1.0,0.0,99.3146,109.108,104.2113,9.570453884155139,0.99908101374395,2.0699527125331256,2.466606625499989,73.88050133367801,1.0,1.0,1.0,5.087571449416643,35.49105457855941,99.908101374395,93.56641343889622,-0.09189862560500271,4.666112500000011,10.919973200024812,1.4218463326038377,0.46908974793171926,0.9527565846721184,1.5876148126392702,0.6572578292135768,0.9303569834256934,105.97502371284341
106.083,2019-09-16,108.685,105.733,108.639,1246800,1.428865978672107,0.6747296334844864,0.7541363451876205,104.54091666666666,102.3831,105.01874538559125,103.58987940691914,0.26069806086976316,0.7236861360155319,-0.46298807514576873,0.07933412733506687,27.99189083645182,-1.3800250000000034,-81.72319778567237,-142.86179313550585,61.13859534983348,106.00450000000001,104.2113,105.1079,104.2113,100.0,0.0,55.33569444137729,38.34520435596953,97.65933132498272,129.21437009531374,128.64256699761714,92.0,40.0,52.0,103.17819152960033,103.24696240702241,0.0,0.0,3230.3373712160164,750.4703999999999,11.535797843029211,15.378900478241803,44272.88066891646,-567012.6987599363,3.022995471061808,104.52628760752012,79.35673695868046,881.2264835777803,102.598025,109.36525484946573,95.83079515053429,13.191735122514729,0.731629120758142,0.0,0.0,105.9893,105.25630000000001,106.72229999999999,-1.383158488639872,0.6748294679399723,1.0,1.0,99.3146,109.108,104.2113,9.545407915990591,0.6553801539812528,1.908957441279814,2.1878403605085683,57.67798978114613,0.6268307585566277,0.8756102528522093,0.9585367509507364,5.576031083401375,18.994173643966086,64.26264572898907,84.42834365728363,-35.73735427101092,4.786544000000006,7.699155788066949,1.3793490125220358,0.6511416008497826,0.7282074116722532,1.4821862601024405,0.8222435153913495,0.6599427447110909,105.9602436470139
107.784,2019-09-17,107.784,105.402,106.184,1448400,1.3535970719996584,0.8105031211875209,0.5430939508121375,104.88958333333335,102.49921153846154,105.07770763396182,103.72411056196216,0.3346369670509806,0.716308006053507,-0.38167103900252636,0.10122710540974168,28.09215463998109,-1.1619250000000108,-70.0181138121981,-129.31773480044205,59.29962098824396,107.053,104.2113,105.63215,104.2113,100.0,0.0,53.738484902442984,43.00480853666264,62.19806693633753,129.21437009531374,128.64256699761714,92.0,40.0,52.0,104.00836471545628,103.24696240702241,0.0,0.0,3230.3373712160164,642.6863999999999,11.476243107794778,8.085271267064357,2490907.7414087523,-381354.5650177156,2.685574760403831,105.02702225094684,72.16772056940843,881.2264835777803,102.74792500000001,109.6232755958242,95.87257440417582,13.382947822691674,0.6930137934792715,0.0,0.0,106.53980000000001,105.7231,107.35650000000001,-1.533135973598607,1.1965838129055955,0.0,1.0,99.3146,109.108,104.2113,9.531482022629659,0.621581881675414,1.9231616971518328,1.9950929646653284,56.36883754975636,0.5966789303331027,0.7411698962965768,0.872260049716262,5.5732949699825,12.84840338196588,56.94202393400717,73.70425701246374,-43.05797606599283,4.5698884615384685,4.1336521172123515,1.3049975214692766,0.7819127849736814,0.5230847364955952,1.5106672830915597,0.9599282689313917,0.550739014160168,105.90536642660508
109.825,2019-09-18,109.954,107.407,107.848,1078700,1.4391431186580093,0.9362311206816185,0.5029119979763907,105.37466666666667,102.65767307692309,105.43606030566,103.996917187002,0.27662007928238636,0.7463981604570112,-0.4697780811746249,0.12163960091672993,27.619352282506,-2.882675000000006,-57.7948817114092,-115.26122469703995,57.46634298563075,107.945,104.2113,106.07815,104.2113,100.0,0.0,55.80016666084822,36.80072667849227,93.16470816357985,105.756,105.756,88.0,36.0,52.0,104.7223136552924,103.24696240702241,0.0,0.0,3230.3373712160164,752.5114,11.504811328631904,38.387250371769376,-3676031.8688822924,-655243.7704693442,4.77471087736555,105.68111594109102,78.85331982840593,881.2264835777803,103.07067500000001,110.18053450743754,95.96081549256247,13.796086049572361,0.8049515250943998,0.0,0.0,107.13780000000001,106.1546,108.12100000000001,-1.8353932972303026,0.3631000813669702,1.0,1.0,99.3146,109.108,104.2113,9.501635649519132,0.8263115976065507,2.1860455274366486,1.5498688451853773,61.99589794839243,0.5859561926555662,0.6031552938484323,0.7399784809990728,7.532671251147666,17.57133777997094,76.99174895171099,66.06547287156907,-23.008251048289022,4.541474074074074,5.730120292166242,1.3838324804092172,0.9022967240607886,0.4815357563484286,1.6680391987766787,1.1015504549004491,0.5664887438762296,106.06042387530606
110.984,2019-09-19,111.232,109.586,109.89,1215800,1.6635892450295557,1.081702745551206,0.5818864994783497,106.15783333333333,102.9204423076923,106.0745125663277,104.41092332129814,0.2493684590400574,0.7408576927703591,-0.4914892337303017,0.14407825550335643,27.377335339655936,-1.5612749999999949,-45.18106288321411,-100.84401568368149,55.66295280046738,108.55199999999999,104.6023,106.57714999999999,104.6023,100.0,18.15191814883277,59.40189398819593,31.787455308854955,115.31455722377048,105.5675,105.5675,100.0,32.0,68.0,105.33630974355147,103.24696240702241,0.0,0.0,3230.3373712160164,863.4954,11.305764979863937,67.45109117580236,-2007244.2874648625,-693616.6416515779,7.02627861503629,106.29481287615089,79.11201883689283,881.2264835777803,103.469275,111.08374057123346,95.85480942876653,14.718312409618154,0.901651628914592,0.0,0.0,107.75296666666668,106.75236666666667,108.75356666666667,-1.8572110466254728,-0.4159670864148153,1.0,0.0,99.3146,109.89,104.6023,10.220811927018916,0.9712540424002872,2.349940974692984,1.454467824723821,66.9800246519955,0.7595965515085925,0.6474105581657539,0.6639119161035877,11.029425046212978,21.123720274674326,96.2813455657492,76.73837281715579,-3.718654434250791,4.674096428571431,9.380364913961747,1.5933095811348028,1.0404992954755916,0.5528102856592112,1.8568859971608342,1.2526175633525263,0.604268433808308,106.46368795650547
109.669,2019-09-20,111.269,109.43,111.021,1486500,1.8080346232975018,1.2269691211004652,0.5810655021970366,106.78466666666668,103.24371153846155,106.59074140227727,104.78270677897977,0.251078515962036,0.7433280771176096,-0.4922495611555736,0.16627961786047316,27.126569823264852,-0.48337500000000944,-34.69163651865164,-86.58556377443693,51.89392725578529,109.4025,105.1678,107.28515,105.1678,100.0,19.358399966388685,60.91923431964511,29.30297057186752,108.98604909246257,104.285,104.285,100.0,28.000000000000004,72.0,106.06490018458324,103.24696240702241,0.0,0.0,3230.3373712160164,753.8264,11.554087261395205,55.37116900783073,-132062.84364770676,-690355.7061748464,6.870160461257528,106.8913303458514,79.33638648895295,879.9720228671226,103.908375,111.82815913061239,95.98859086938762,15.243784017625883,0.84859693830904,0.0,0.0,108.26453333333333,107.41573333333334,109.11333333333334,-1.5680111923387732,-0.18653785736726042,1.0,0.0,99.3146,111.021,105.1678,11.266079370406862,0.8640914371625783,2.2832468772236862,1.4228959740054772,66.30954332534994,0.7362378720274254,0.6939302053971947,0.6481653524704604,13.50753622162113,17.879695285398462,82.90350311626914,85.39219921124311,-17.096496883730865,4.729913793103449,7.381167327393341,1.7255086062161238,1.177501157623698,0.5480074485924258,1.8841170805516787,1.3789174667923567,0.505199613759322,106.72579398512106
108.832,2019-09-23,109.614,108.501,108.887,933900,1.8264914339257103,1.3468735836655141,0.4796178502601962,107.20766666666668,103.56344230769231,106.88462734038846,105.05813590646275,0.2753878281622909,0.7725238663484479,-0.49713603818615704,0.18522276537294668,26.53539150942379,0.11488999999998839,-25.014767833561073,-72.97104400141691,47.95627616785584,109.4025,105.1678,107.28515,105.1678,100.0,19.54166194020391,60.9192343196451,39.01055890149925,73.36624878804773,103.77,103.77,96.0,24.0,72.0,106.95699815135825,103.24696240702241,0.0,0.0,3230.3373712160164,644.9944,10.29110771916023,33.01744086385489,1265529.8992943326,-655937.1385421625,5.946237149551416,107.4435017172811,78.5474961958174,872.5015485068599,104.46011000000001,112.03795332456141,96.88226667543861,14.508587679184712,0.766625333022036,0.0,0.0,108.50819999999999,107.6226,109.39380000000001,-1.6323190321100227,0.504065040650409,1.0,1.0,99.3146,111.021,105.1678,11.206574452199984,0.784733137429099,2.109222189501318,1.3267128779000936,62.309441545506466,0.4457533725888752,0.6471959320416311,0.6628455652015265,14.387688694233406,13.85928031179689,68.96551724137939,82.71678864113257,-31.034482758620623,4.689953333333349,4.907904278462662,1.738553057472774,1.2897115375935133,0.4488415198792608,1.8212390442482678,1.4673817822835389,0.3538572619647289,106.79952729668241
106.883,2019-09-24,109.182,106.69,108.979,1139900,1.6756699444301262,1.4126328558184365,0.26303708861168973,107.38391666666666,103.80678846153845,106.85468467263638,105.17901472820625,0.2896659044715449,0.7698488313008122,-0.4801829268292673,0.19732741110300173,26.047692510856546,0.7210149999999942,-17.024873380385575,-60.29416789512873,43.26929451474315,109.4025,105.1678,107.28515,105.1678,100.0,19.480335575517863,59.133728796504215,40.516065262898934,54.615109266142476,103.77,103.77,92.0,20.0,72.0,107.68851848411376,103.24696240702241,0.0,0.0,3230.3373712160164,538.1114,11.242762853023002,0.6485045975898025,32287.64162682639,-612256.2587208354,4.162243333826214,107.84329611623309,71.59240832009655,857.938546282494,104.90198500000001,111.89520137653949,97.90876862346053,13.332858051331401,0.627839244757129,0.0,0.0,108.62593333333334,107.79913333333334,109.45273333333334,-1.5222884160872547,1.6707385905499204,0.0,1.0,99.6641,111.021,105.34255,10.826201239185316,0.6186459333092653,1.9663999705511859,1.4974134934359624,55.30538212408882,0.0,0.39399708153876695,0.5783744063258642,13.058646777920039,-1.950721476340382,28.092312800929673,59.9871110528594,-71.90768719907032,4.967248387096774,2.0224719101123547,1.593159955681497,1.35040122121111,0.24275873447038698,1.6067055472805938,1.4952465352829498,0.11145901199764396,106.79889347062144
107.278,2019-09-25,107.729,106.901,107.315,675100,1.5552409148318134,1.4411544676211119,0.11408644721070149,107.49041666666666,103.97975,106.86181010761538,105.30656919278357,0.34171281040866963,0.779732989095355,-0.4380201786866854,0.2043392499613295,25.80677729541646,1.1028799999999848,-10.470345306935952,-48.7799968807762,38.30965157384025,109.375,105.1678,107.2714,105.1678,100.0,18.678845231444935,56.789958130778814,48.12457310217865,28.48312016529717,103.77,103.77,88.0,16.0,72.0,107.68851848411376,111.021,0.0,1.0,3230.3373712160164,645.3894,10.796114657569497,3.7895265122198083,601445.7763940446,-430535.0607325057,4.374406216945523,108.06441565571419,64.67794720222977,857.938546282494,105.32912000000002,111.68604909936866,98.97219090063138,12.070601367159702,0.6236351684460422,0.0,0.0,108.57963333333335,107.76933333333334,109.38993333333333,-1.4925451028415666,1.53580978238513,0.0,1.0,100.501,111.021,105.761,9.987741281803165,0.6083650190114063,1.8736599734960673,1.6343325375922642,55.926991206703164,0.033464607984504506,0.15973932685779327,0.4003107801460637,12.200925933398441,10.28241419642068,2.807265864590697,33.288365302299916,-97.1927341354093,4.607021874999987,1.2099637389583628,1.4768697971582865,1.3756949364005455,0.10117486075774096,1.449674865945052,1.4861322014153704,-0.036457335470318375,106.79945799101407
107.278,2019-09-26,107.692,106.23,107.131,995900,1.389637077798028,1.4308509896564952,-0.04121391185846712,107.47358333333334,104.18275000000001,106.76460855259764,105.37497147479961,0.39592869636411027,0.758364035577387,-0.3624353392132767,0.20596404631861245,25.643725139304557,1.3811000000000035,-5.326489043066973,-38.58281869723278,33.25632965416581,109.3565,105.1678,107.26214999999999,105.1678,50.0,17.916024283269262,55.91171419690457,47.62911856507964,13.850001455603039,103.77,103.77,84.0,12.0,72.0,107.68851848411376,110.95516,0.0,0.0,3230.3373712160164,538.1114,10.911768082494754,-7.03519698952576,57784.91396185632,-250467.01812009976,3.7010398499330672,108.17339506212734,57.732935638607636,857.938546282494,105.7319,111.18037996784423,100.28342003215576,10.306217835571358,0.5457099964521929,0.0,0.0,108.446,107.60629999999999,109.28569999999999,-1.548604835586376,1.8195188757889635,0.0,1.0,101.715,111.021,106.368,8.801506451695277,0.48517085751128325,1.7653939761464603,1.8278228233637486,53.38426198350733,0.0,0.011154869328168206,0.18829709257490948,10.79004578915083,7.500100113985027,-25.84712371946399,1.6841516486854597,-125.847123719464,3.901160606060614,-0.1897925435959093,1.3187544047215798,1.3643068300647525,-0.04555242534317272,1.3101633660966716,1.4509384343516307,-0.1407750682549591,106.79030830291437
108.713,2019-09-27,109.255,107.122,107.333,1136700,1.3152108570131844,1.4077229631278332,-0.09251210611464877,107.47433333333333,104.39459615384615,106.819591852198,105.50438099518482,0.40081446967751383,0.7449095645155361,-0.3440950948380223,0.20520211169049782,25.842383864710072,1.5639000000000038,-1.8146902645961083,-29.704095639335417,27.889405374739308,109.3565,105.1678,107.26214999999999,105.1678,32.68398390514085,17.299230526032883,53.13091206162489,44.106402751874654,34.841243476378466,103.77,103.77,80.0,8.0,72.0,107.68851848411376,110.82463360000001,0.0,0.0,3230.3373712160164,646.8244,10.844735930994005,7.822973437549282,-1560222.7884429626,-334734.47828822397,4.6138892898276325,108.26765323246372,57.81349766508722,857.938546282494,106.02709999999999,111.09156233671452,100.96263766328546,9.553146953400644,0.6080963710661441,0.0,0.0,108.2875,107.3706,109.2044,-1.693454923236764,1.1355654924201084,0.0,1.0,101.715,111.021,106.368,8.777001351541255,0.5810229959166128,1.8913545785318135,1.9240710369181717,56.232999655874096,0.13898831018203558,0.057484306055513405,0.07612616741382495,10.44171153011011,1.9961360849660381,-17.122258936617357,-13.387372263830216,-117.12225893661736,3.233511764705895,0.008402341452485078,1.2465935960263206,1.3407641832570663,-0.09417058723074567,1.2923411817663453,1.4192189838345737,-0.1268778020682284,106.79873237327357
108.979,2019-09-30,109.568,108.078,109.099,840700,1.3181736657200531,1.389813103646277,-0.07163943792622396,107.51491666666668,104.68036538461538,107.013193105706,105.69501943998594,0.3970968094008072,0.7841888892931194,-0.38709207989231215,0.20427311245093732,26.00600847182049,2.7472999999999956,3.6461811913966633,-21.51917397226933,25.165355163665993,109.3565,105.1678,107.26214999999999,105.1678,45.24489891138987,17.477808348621654,57.65289455115054,38.59622360879488,65.19832943060736,103.77,103.77,76.0,4.0,72.0,107.68851848411376,110.69932825600002,0.0,0.0,3230.3373712160164,755.8034,10.85397723651989,21.58882351789943,-447357.2890189814,-345259.8664598224,5.586461907963967,108.39654189458419,57.89528234428571,857.938546282494,106.35170000000001,111.05530313376885,101.64809686623117,8.845374608527813,0.6835082543004398,0.0,0.0,108.41043333333332,107.45123333333333,109.36963333333333,-1.7695713788924914,0.673286766750067,1.0,1.0,101.715,111.021,106.368,8.750212737549091,0.6837524177949711,1.9468191206786318,1.9589047535436481,59.11665925150794,0.2796804413758407,0.13955625051929213,0.06939847530099125,11.003567703838646,-4.387243161875877,11.595073595674647,-10.458103020135567,-88.40492640432535,3.1448911764705656,0.4526400907139157,1.2471483261030265,1.3220410118262584,-0.07489268572323193,1.283073652440174,1.3919899175556938,-0.10891626511551977,106.85184368745385
107.471,2019-10-01,110.506,107.168,109.494,1004700,1.2328804398838997,1.3584265708938017,-0.12554613100990197,107.35399999999998,105.05350769230769,107.03700955098199,105.80412911109809,0.3925644970837653,0.7732493648692156,-0.3806848677854503,0.2011456461420417,26.16768310023344,-0.9677000000000078,8.688143347792392,-14.132171187913599,22.82031453570599,109.3565,105.1678,107.26214999999999,105.1678,62.13481794135391,17.799273642960788,55.03744344988497,35.20390818651854,67.09751510667175,102.74425,103.342,72.0,0.0,72.0,107.68851848411376,110.57903512576002,0.0,0.0,3230.3373712160164,648.3324,10.961791322298804,4.53347587248528,-627609.308557657,-364598.2194726294,4.68157275383454,108.48730933242528,57.90986666081595,850.7148367660608,106.70070000000001,110.46523291126537,102.93616708873465,7.056247824551034,0.5620661329061036,0.0,0.0,108.67036666666665,107.76996666666666,109.57076666666667,-1.6571214906486404,1.3342773582111573,0.0,1.0,102.901,111.021,106.961,7.610071911430763,0.5254926108374394,1.9949372086107684,2.04574281220313,55.37649352785748,0.09719985751110763,0.17195620302299466,0.1229989198659334,10.455656194281334,-9.819931408145735,-15.74046260138136,-7.089215980774689,-115.74046260138137,3.163261764705865,-1.7699520618887405,1.165247944708596,1.290682398402726,-0.1254344536941301,1.1494647016782005,1.343484874380195,-0.19402017270199456,106.86031736337466
105.209,2019-10-02,106.561,104.418,106.074,1167500,0.9326321240306896,1.2732676815211794,-0.3406355574904898,107.24441666666667,105.30602692307691,106.63408500467708,105.70145288064639,0.557119296316657,0.8610958402052392,-0.3039765438885822,0.19112198190235924,26.32026190437518,-1.424199999999999,9.467708464741623,-8.060085482585183,17.527793947326806,108.791,105.34255,107.066775,105.1678,31.067408970676954,16.92831263271088,52.89136160103721,59.17351638312157,-110.76751614505184,101.7998,102.4548,68.0,0.0,68.0,107.68851848411376,110.46355372072962,0.0,0.0,3230.3373712160164,543.1234,11.16217990746454,-37.4462706807269,1704585.6343088818,-231876.87343731962,1.981841957328116,108.30219370459835,50.96297416485089,828.8849453702461,106.8262,110.07533161321606,103.57706838678394,6.083023852231129,0.12940867181180415,0.0,0.0,108.39850000000001,107.66,109.13699999999999,-1.3625649801427044,3.1949898442789526,0.0,1.0,104.998,111.021,108.0095,5.638129971860832,-0.09629752614975903,1.9048434877496923,2.4028390216370443,45.92128738205407,0.0,0.12562676629564948,0.14571307327931207,7.056739300939566,-18.32291513987975,-48.04932735426017,-17.39823878665563,-148.04932735426019,2.8143029411764644,-1.243698750626576,0.8823266838950439,1.2090112555011896,-0.3266845716061457,0.8640095905913904,1.247589817622434,-0.38358022703104366,106.74049103502544
105.384,2019-10-03,105.393,103.011,104.924,674600,0.5745272369772323,1.13351959261239,-0.5589923556351577,107.04516666666666,105.48497692307693,106.07668731164982,105.50216007467259,0.6485757824405106,0.8799281053413028,-0.23135232290079222,0.17393491314507512,25.966140864689258,0.6014999999999873,7.0929653807582955,-3.4173519382063007,10.510317318964596,107.4435,105.761,106.60225,105.1678,15.533704485338477,16.57302183048003,51.10250022522664,64.97918511352641,-180.441470127907,101.7998,102.4548,64.0,0.0,64.0,107.68851848411376,110.22940049748584,0.0,0.0,3230.3373712160164,437.73939999999993,11.521520020997185,-53.27898744062321,515800.31124268635,-124136.68479344038,0.5618254084572254,107.9466881604885,43.90745227136431,828.8849453702461,106.80550000000001,110.14505988118196,103.46594011881805,6.2535354100340435,-0.06811378370269607,0.0,1.0,107.81916666666666,107.16796666666667,108.47036666666668,-1.207948494006173,4.191774160524154,0.0,1.0,105.393,111.021,108.207,5.2693915575508745,-0.4232409381663122,1.8118591389747223,2.8887607707324854,41.97256046793834,0.0,0.03239995250370258,0.10999430727411558,2.9721838136186594,-18.911046888245433,-42.32409381663122,-35.37129459075758,-142.3240938166312,2.2620117647058606,-2.2684579040245967,0.5445644303117508,1.0761218904633019,-0.531557460151551,0.6432276330223949,1.1267173807024262,-0.4834897476800313,106.03551957535132
107.241,2019-10-04,107.508,105.522,105.522,997500,0.4877211033943212,1.0043598947687762,-0.516638791374455,106.88808333333333,105.76757692307693,105.99135080216523,105.50362969877091,0.5099223759703003,0.8329733378332757,-0.3230509618629753,0.1570923048207818,25.970560745781157,2.7331499999999807,6.72652895025419,0.10945881555095067,6.61707013470324,107.4435,106.368,106.90575,105.1678,7.766852242669239,15.957176793138391,46.92538874549872,55.03223441583744,-91.10100967976477,101.7998,102.4548,60.0,8.0,52.0,107.68851848411376,109.84248845768697,0.0,0.0,3230.3373712160164,544.9803999999999,11.49313254323979,-7.198824806248318,-2512107.3097042926,-306735.2698200982,3.175936047126899,107.83994697910944,50.90315932827226,828.8849453702461,106.85285000000002,110.08984559931739,103.61585440068265,6.058791317812052,0.29443129297415976,0.0,0.0,107.38023333333334,106.55523333333333,108.20523333333333,-1.536595655252495,1.6262020202020202,0.0,1.0,105.393,111.021,108.207,5.267056517444316,0.022921108742005133,2.08037322507725,2.940641799240346,50.202357536182234,0.32909362611386167,0.10969787537128727,0.08924153139021311,2.148492763757219,-0.4536362264393503,2.2921108742005134,-29.360436765563623,-97.70788912579948,1.7563735294117748,-1.7550066569217937,0.4622789801515265,0.9533533084009468,-0.49107432824942027,0.6011699047591331,1.0216078855137676,-0.42043798075463445,106.00472928702972
106.405,2019-10-07,107.554,106.405,106.8,996100,0.4845912710613334,0.9004061700272876,-0.41581489896595425,106.62299999999999,105.96707692307692,106.05498914029366,105.57039786923232,0.44969774745871444,0.873256560062138,-0.4235588126034236,0.14255346959084525,26.033607828373864,2.5380500000000126,8.791630148271985,2.977959207624013,5.813670940647972,107.4435,106.368,106.90575,105.1678,3.8834261213346193,14.835735323028885,51.03386127763391,50.772223496580494,-51.95428248906394,101.7998,102.4548,56.00000000000001,4.0,52.00000000000001,107.68851848411376,109.48652938107202,0.0,0.0,3230.3373712160164,651.3853999999999,11.207683086615297,7.2518094517870875,-469102.01588271465,-518164.53819806007,4.066324923380193,107.87383303325295,57.91729804935355,835.8209909982851,106.89195,110.08720163171854,103.69669836828145,5.978470093806968,0.4238009934544514,0.0,0.0,107.17213333333333,106.34443333333334,107.99983333333334,-1.5446179417286336,0.9634126696468169,1.0,1.0,105.393,111.021,108.207,5.2651298811556915,0.17981520966595602,2.0755359025695244,2.9032752823323458,52.74065264427489,0.43059512540265704,0.2532295838388396,0.13177580390460983,2.3247829062598573,6.3997486843045595,17.9815209665956,-7.350153991945035,-82.0184790334044,1.2113529411764716,-2.902743051119666,0.45902192360929217,0.854487031442616,-0.3954651078333238,0.4990807495951676,0.9171024583300477,-0.41802170873488004,106.01518041990047
103.315,2019-10-08,105.706,103.278,105.669,1146000,0.2271694221273748,0.765758820447305,-0.5385893983199302,106.11033333333332,106.03215384615386,105.62776004178694,105.40059061965957,0.5868191509982554,0.8987012987012971,-0.3118821477030417,0.12406562530065582,25.891813004241556,1.7667500000000018,9.189897966097305,5.1624306824054855,4.02746728369182,107.4435,106.368,106.90575,105.1678,1.9417130606673096,14.51584607437147,48.808404409296834,60.087014181385776,-146.20315835277796,101.66855000000001,102.4548,52.0,0.0,52.0,107.68851848411376,109.15904703058625,0.0,0.0,3230.3373712160164,548.0703999999998,17.350109756989124,-39.936449755610994,53343.173788906875,-251780.6065786887,1.030132968114942,107.62977482812278,50.94354073761607,811.2581204672797,106.73425,110.29514482433841,103.1733551756616,6.672450172907768,0.014693613473665311,0.0,0.0,106.83219999999999,106.0211,107.6433,-1.51845604602357,2.6909752188386213,0.0,1.0,105.393,111.021,108.207,5.272909117738682,-0.37579957356076665,1.9415823123125722,3.259434760511038,44.156791222950915,0.08734315238588146,0.28234396796746675,0.2150904757258645,-0.43633844740338673,-11.687608949823824,-37.57995735607667,-5.768775171760185,-137.57995735607668,0.2479558823529402,-5.621858722470987,0.21552955328981108,0.726695535812055,-0.511165982522244,0.18237501158203986,0.7701569689804462,-0.5877819573984063,105.8967482645067
105.365,2019-10-09,105.779,104.152,104.372,1481800,0.09261760974747801,0.6311305783073397,-0.5385129685598616,105.74791666666665,106.1846153846154,105.40072003535818,105.3081024256107,0.6704670834865767,0.8135343876425143,-0.1430673041559376,0.10513614419110802,25.962521151657622,0.10379999999999256,9.645146564816729,6.825945749948119,2.8192008148686103,107.4435,106.961,107.20224999999999,105.1678,0.9708565303336548,14.218806057761016,45.466621263128985,55.973014272455,-128.92526098969844,101.66855000000001,102.4548,48.0,0.0,48.0,107.68851848411376,108.85776326813935,0.0,0.0,3230.3373712160164,653.4353999999998,17.264069357015487,-21.075669790523786,817239.1211502877,-50031.79167760656,1.921794406175322,107.2353778693949,43.70668271213788,811.2581204672797,106.5862,110.31409611443239,102.85830388556762,6.995082129642266,0.17351558019869334,0.0,0.0,106.57746666666667,105.66706666666667,107.48786666666668,-1.7084286734782013,1.8320884592852948,0.0,1.0,105.393,111.021,108.207,5.280233275977565,-0.22050461975835103,1.997524081081314,3.505076144933431,46.76477294598603,0.19691070606923125,0.23828299461925662,0.2579521821418543,-1.7387860989017272,-14.164582569080704,-22.050461975835102,-13.882966121772057,-122.0504619758351,-0.07089999999999463,-4.0082579884056395,0.08794917733220271,0.5989462641160846,-0.5109970867838819,0.0852058000970736,0.6331667352037716,-0.5479609351066981,105.84330911382646
106.359,2019-10-10,106.561,105.09,105.154,734400,0.06097026261508631,0.517098515168889,-0.45612825255380274,105.61458333333336,106.307,105.35291695299537,105.29194669038029,0.6675794737468754,0.8222407429455876,-0.15466126919871215,0.08827305432046866,25.986853343479222,0.43984999999999275,10.706627894970476,8.217203323233296,2.48942457173718,107.4435,108.0095,107.7265,105.1678,0.4854282651668274,13.553646992081932,47.52749898025733,52.43209559433749,-81.01247237944195,101.67105000000001,102.4548,44.0,0.0,44.0,107.68851848411376,108.5805822066882,0.0,0.0,3230.3373712160164,759.7943999999999,16.903220999360755,-3.8127538204489273,-1034490.7342115038,-114490.92671787777,2.8796707983713348,106.87421790842204,43.391369430374674,811.2581204672797,106.46115,110.21354359742553,102.70875640257448,7.04932005229236,0.31729661822513355,0.0,0.0,106.43586666666667,105.44086666666666,107.43086666666667,-1.8696704995433955,1.1763149078726933,0.0,1.0,105.393,111.021,108.207,5.286435474349094,-0.053837953091683946,2.038671672973183,3.6041714054067944,49.4911013384528,0.3696998001727768,0.2179845528759632,0.2462038384875622,-1.9007220858970033,-5.268341489691697,-7.3884418434527515,-22.339620391788173,-107.38844184345275,-0.041041176470599794,-1.4996719467616406,0.05790591259023297,0.4907381938109143,-0.43283228122068135,0.08265653477757266,0.5230646951185318,-0.44040816034095914,105.83427093232007
109.586,2019-10-11,110.23,107.683,108.051,1313300,0.24232951756705745,0.4621447156485228,-0.21981519808146532,105.67975000000001,106.47076923076922,105.71139126791917,105.46906175035211,0.5346378465462849,0.818520507484728,-0.28388266093844317,0.07816809332144793,25.981695241862006,-0.1603499999999798,13.416307646347143,9.302772929338904,4.113534717008239,107.4435,108.207,107.82525,105.1678,2.8243188078508115,13.468562759901806,55.95883715829737,43.64530697104973,56.862145625974044,102.01355000000001,102.4548,40.0,76.0,-36.0,107.68851848411376,108.32557563015315,0.0,0.0,3230.3373712160164,869.3803999999999,16.921076856816185,37.32571072532955,-6527893.161535242,-671164.0024914189,5.583605501958738,106.84993556857862,50.83100137869677,811.2581204672797,106.39034999999998,109.99136931541612,102.78933068458385,6.769447257981836,0.6794839025808784,0.0,0.0,106.511,105.4903,107.5317,-1.9166095520650412,-0.0741158028803794,1.0,0.0,105.393,111.021,108.207,5.289953459124818,0.4068941009239528,2.3488045056758646,3.5957714888038055,56.17307044236093,0.8283030886424863,0.46497119829483147,0.3070795819300171,0.2421351884371939,14.931778828993744,55.840039014874584,8.800378398528908,-44.159960985125416,0.2436029411764622,0.7315179465112681,0.22976360417489772,0.438543275883711,-0.20877967170881329,0.3213020842170264,0.48271217293823077,-0.16141008872120438,105.8474547315308
107.784,2019-10-14,110.101,107.701,109.044,1168700,0.38309440942323647,0.44633465440346554,-0.06324024498022907,105.80233333333335,106.591,106.01748491900852,105.63439050958529,0.5226602391297458,0.8290888332117594,-0.3064285940820136,0.07289136962707196,26.071006867162797,0.6332499999999897,16.707041479535906,10.193761610643739,6.513279868892168,107.2185,108.207,107.71275,105.1678,7.771349486410799,13.748142642710508,57.26120302761862,40.302087368618544,64.54872496435108,102.31005,102.4548,36.0,72.0,-36.0,105.393,108.32557563015315,1.0,0.0,3230.3373712160164,977.1643999999999,10.802733735371234,32.27062519313941,-423647.29458917433,-703730.7836497045,5.601622384846468,106.89869910835155,58.118397999736395,811.3937281877965,106.48875000000001,110.11996863153406,102.85753136846596,6.81991033143699,0.666920546930529,0.0,0.0,106.51436666666666,105.43486666666668,107.59386666666667,-2.026956613990406,-0.049621738459158536,1.0,0.0,105.393,111.021,108.207,5.28506532380181,0.41009239516702073,2.3557240551082774,3.5269571156079267,56.21637194643532,0.8308288267767002,0.6762772385306545,0.45307766323381643,1.9075553798780231,19.408111547651583,56.27895635210908,34.91018450784363,-43.72104364789092,0.41275147058823336,1.3847312435281836,0.3626606899279401,0.4233667586925568,-0.060706068764616705,0.36942448362892605,0.4600546350763699,-0.09063015144744385,105.85893342734734
108.704,2019-10-15,109.062,107.49,108.363,1275300,0.47218263626868406,0.45150425077650924,0.020678385492174822,105.83299999999998,106.6628076923077,106.24402570069951,105.77184306443083,0.5133268451951154,0.7820299500831942,-0.2687031048880788,0.07053192664466951,26.071455913350725,1.4848500000000087,16.15038577827991,10.936281312147994,5.214104466131918,107.2185,108.207,107.71275,105.1678,18.182868159816593,13.499366342196623,55.052247592586326,44.801941089057514,32.9540516805573,103.17217500000001,103.0848,32.0,68.0,-36.0,105.46602,108.32557563015315,0.0,0.0,3230.3373712160164,868.4603999999999,10.875783511957088,24.38388673697666,553006.3291139221,-707190.7441697132,5.388657379879015,106.97094581071396,58.02385036925369,811.3937281877965,106.59315,110.21343265609192,102.97286734390806,6.792711644401035,0.6238646378192115,0.0,0.0,106.43926666666667,105.39106666666666,107.48746666666666,-1.9695738853267835,-0.0012084207848369409,1.0,0.0,105.393,111.021,108.207,5.279888998495682,0.3726012793176962,2.25625164959745,3.468684637127478,55.52384590374064,0.7904344000157918,0.8165221051449928,0.6525901806568263,3.0394229871995835,12.230545529866303,51.13386978785649,54.41762171828005,-48.86613021214351,0.7486470588235363,0.3435335411960148,0.44641619412933403,0.4279766457799123,0.01843954834942174,0.47131129347715406,0.46230596675652674,0.009005326720627316,105.8686490121618
109.393,2019-10-16,110.377,108.373,108.63,1338900,0.6070388523297225,0.48261117108715196,0.12442768124257059,105.85758333333332,106.73746153846156,106.5715602082842,105.96452135595447,0.4767445285575425,0.7819670682494324,-0.3052225396918899,0.07172268689712748,26.219239735853268,0.5265500000000003,17.732448681418845,12.118446123332498,5.614002558086346,107.375,108.207,107.791,105.1678,59.091434079908296,13.374139776771893,52.94038997044059,41.810738230851115,66.04165770724876,103.4779,103.1813,28.000000000000004,64.0,-36.0,105.5375796,108.32557563015315,0.0,0.0,3230.3373712160164,977.8534,10.871346491744365,34.69961991740872,-1263222.5096669754,-801548.4172860583,6.287289987563472,107.12482768320902,65.28840355156308,811.3937281877965,106.64145,110.32902614023088,102.95387385976913,6.915840210782719,0.7347815928611021,0.0,0.0,106.7835,105.60929999999999,107.9577,-2.1992161710376714,-0.1768438085505024,1.0,0.0,105.393,111.021,108.207,5.277497633424902,0.5294953802416495,2.319326484637705,3.3707387442024523,57.86320926041711,0.9268873793300758,0.8493835353741893,0.7807276263499455,4.684341763689649,12.931293039700922,72.665203608876,60.02600991628052,-27.334796391124,1.339579411764717,0.27295101685819656,0.5728699045320712,0.4569552975303441,0.11591460700172712,0.596588364368719,0.4891624462789652,0.10742591808975377,106.01488453515415
111.49,2019-10-17,111.692,109.366,109.494,1784000,0.7849912853994283,0.5430871939496072,0.24190409144982106,106.04075,106.8241153846154,107.00147402239432,106.21648273699489,0.4879537423707039,0.8026457962211251,-0.3146920538504212,0.07693247428877088,26.57554854381037,-2.21244999999999,20.608893267924223,13.660931047518057,6.947962220406167,107.6,108.207,107.9035,105.1678,79.54571703995416,13.600687585357493,54.53402443245804,39.049820160501596,111.79305621955396,104.1679,103.5678,24.0,60.0,-36.0,105.607708008,108.32557563015315,0.0,0.0,3230.3373712160164,1089.3434,10.851688220182806,45.55818421492168,-2147924.4775316124,-843527.1093638191,7.308850431585503,107.2954778439926,65.4076571646934,811.3937281877965,106.63045,110.28398163254406,102.97691836745594,6.852698516313229,0.8743706466960519,0.0,0.0,107.35763333333334,106.01053333333334,108.70473333333334,-2.5095560663439813,-0.2454408234973884,1.0,0.0,105.393,111.021,108.207,5.278042060218259,0.7059346126510304,2.4192938361739333,3.316740357665879,60.38660709734135,1.0,0.9057739264486225,0.8572265223226015,6.829151432724689,21.59491195923427,96.87881004633016,73.55929448102088,-3.12118995366984,2.028929411764693,2.05098536876679,0.7390484651456248,0.5133739310534002,0.2256745340922246,0.8424023590943784,0.5598104288420479,0.28259193025233054,106.4447965116403
114.239,2019-10-18,114.856,112.869,113.108,3015800,1.194908533127574,0.6734514617852007,0.5214570713423733,106.745,107.02711538461539,107.90417032664135,106.70926179351378,0.4819105854587399,0.8209831844878908,-0.3390725990291509,0.09093797350080303,26.790051165246055,-3.791399999999996,24.331486155279407,15.387581714963327,8.94390444031608,109.40700000000001,109.2505,109.32875000000001,106.2113,89.77285851997708,14.984030381586058,62.60010430399737,31.55840894203751,232.3350149511953,104.5584,103.95830000000001,100.0,56.00000000000001,43.99999999999999,105.76315968768,108.32557563015315,0.0,0.0,3230.3373712160164,1203.5824,10.19261233638766,96.21833175564717,-5185595.112002007,-1181972.6681483209,10.967932934374293,107.65688693420516,65.64404485871549,811.3937281877965,106.80239999999999,111.21221080773313,102.39258919226685,8.257887103160861,1.1878526386394503,1.0,0.0,108.10033333333334,106.77703333333332,109.42363333333333,-2.4482810722137827,-1.3018086097886585,1.0,0.0,105.393,113.108,109.2505,7.223620442986303,0.969021386908619,2.7263644525565396,3.2962870205461554,67.7286508100739,1.0,0.9756291264433585,0.9102621960887234,11.320646513278204,28.105439453670236,96.9021386908619,88.81538411535603,-3.0978613091380973,2.6558911764705897,8.093432166867775,1.1197795889917828,0.6346550626410767,0.485124526350706,1.2254011205471416,0.6929285671830667,0.5324725533640748,107.372440937962
114.653,2019-10-21,115.508,114.258,114.948,1688300,1.613254997494309,0.8614121689270223,0.7518428285672866,107.68225,107.22553846153846,108.88168258408115,107.26842758658684,0.4796789162088654,0.8428449517307585,-0.3631660355218931,0.11259256897275177,26.99585451778654,-1.568249999999992,27.779059543779848,17.45304411248361,10.326015431296238,110.36349999999999,110.1705,110.267,107.1313,94.88642925998853,16.734840315041016,65.26730667655384,28.30899902292497,233.23515014670923,104.81139999999999,104.2113,100.0,52.0,48.0,106.2038501064192,108.32557563015315,0.0,0.0,3230.3373712160164,1318.2354,10.245097660588826,105.22328679055465,-608584.1626472923,-1180613.7291547235,12.378887377135367,108.10610050466619,65.94898152906345,811.3937281877965,107.09025,112.5359039322656,101.6445960677344,10.170214248758594,1.1581165539670955,1.0,0.0,108.89883333333334,107.59493333333334,110.20273333333334,-2.394699667734424,-1.5550527903469047,1.0,0.0,105.393,114.948,110.1705,8.9223808890165,0.9277864992150708,2.717628007300885,3.2431084319825296,70.09543775758333,1.0,1.0,0.9604676842973271,15.836047591165386,30.86124016516399,92.77864992150708,95.51986621956638,-7.221350078492917,3.3783294117647102,10.918251448874393,1.5039420580599945,0.8085124617248602,0.6954295963351342,1.5380485255487095,0.8619525588561954,0.6760959666925141,108.41963577937163
115.196,2019-10-22,115.527,113.366,114.92,1505600,1.851477953935543,1.0594253259287265,0.7920526280068165,108.33591666666668,107.51911538461539,109.57157757114558,107.72009961721004,0.3754147532715745,0.7764446685955458,-0.40102991532397136,0.13651926546675053,26.85653451334404,-1.0190500000000071,33.8983409391267,20.147843487406938,13.75049745171976,110.75450000000001,110.1705,110.4625,107.1313,97.44321462999427,18.360592396106334,63.04141741162691,27.343543265140624,182.4999154797965,105.1079,104.2113,96.0,48.0,48.0,106.90338209790566,108.32557563015315,0.0,0.0,3230.3373712160164,1203.0394000000001,9.370729080069106,75.51212696333263,2371.176082499208,-1302200.4761708938,11.479564511340412,108.76399370560716,65.12082274755417,811.3937281877965,107.42405000000001,113.51128456012661,101.3368154398734,11.333094516780186,0.9880664562297078,0.0,0.0,109.87083333333332,108.50993333333334,111.23173333333334,-2.4772725548940064,-0.7841379479266148,1.0,0.0,105.393,114.948,110.1705,8.89465627110502,0.834432234432235,2.5727652065707973,2.995448977665723,66.71173970644057,0.8796816550350395,0.9598938850116797,0.9785076704850127,18.47779215516184,25.718664202198063,83.4432234432235,91.04133735186417,-16.5567765567765,4.31161764705881,7.433520971930017,1.7187859652143687,0.990567162422762,0.7282188027916067,1.8014761773903998,1.0498572825630363,0.7516188948273634,109.96317166257799
114.46,2019-10-23,115.941,114.249,115.058,1670400,2.0874591539514995,1.2650320915332811,0.8224270624182184,108.98958333333333,107.85938461538461,110.29118102173857,108.20372186778707,0.3303796501413188,0.7534693046113105,-0.42308965446999164,0.1622518620486198,26.459570075293215,-4.513450000000006,41.36647916958629,23.55449362903092,17.811985540555373,112.06,110.22550000000001,111.14275,107.1863,98.72160731499713,19.906520010049537,58.33137024267564,24.99702844961175,164.06174894413076,105.63215,104.2113,100.0,44.0,56.0,107.54695153007322,108.32557563015315,0.0,0.0,3230.3373712160164,1317.4994000000002,9.340902445411958,79.16299168285647,-212919.79730910514,-1354251.9124960215,12.371085602320065,109.5322388615491,72.1202052048553,817.7136182958519,107.79145000000001,114.55722902314284,101.02567097685719,12.553461379623016,0.9772214683565246,0.0,0.0,110.90233333333333,109.59383333333332,112.21083333333334,-2.359733940073415,-0.7788179849700574,1.0,0.0,105.393,115.058,110.22550000000001,8.966388335995115,0.9162959130884624,2.572988685913718,2.5301018918245233,68.34096111331122,0.9323605168862769,0.9373473906404387,0.9657470918840394,21.163351254327658,29.346272717630743,91.34944396920433,89.19043911131165,-8.650556030795673,5.184773529411757,7.371834030355711,1.9291934860633932,1.1782924271508883,0.7509010589125049,1.9315994239755803,1.2262057108455453,0.705393713130035,111.30096275619843
113.642,2019-10-24,115.039,113.145,115.003,1144700,2.160487625144043,1.4441231982554334,0.7163644268886096,109.81183333333335,108.08007692307692,110.73023009531725,108.56974247017321,0.3875611539110389,0.7598830343586573,-0.37232188044761844,0.18567147720394855,25.957958020760866,-3.985200000000006,48.688535335332126,27.473630038918138,21.21490529641399,112.06,110.22550000000001,111.14275,107.1863,99.36080365749856,20.783771966313868,56.02409692010265,28.740143149996427,125.2185913362435,106.07815,104.2113,96.0,40.0,56.0,108.29805637706589,108.32557563015315,0.0,0.0,3230.3373712160164,1203.8574,14.530850519508725,49.931026013877,15158.128156844119,-1173732.9526487975,11.272951106613316,110.12406248402941,64.72260295989967,809.8119663374223,108.1372,115.24649446851089,101.02790553148913,13.148656463290859,0.8522009126349304,0.0,0.0,111.78173333333334,110.61033333333333,112.95313333333334,-2.095870166025944,-0.08189630641397234,1.0,0.0,105.393,115.058,110.22550000000001,8.93771985958579,0.8020693222969467,2.3946898173223468,2.3423998224409495,64.11576482581862,0.7694685833441289,0.8605035850884818,0.9192482869135334,22.15864815685232,25.630954576152906,79.54448246364403,84.77904995869062,-20.455517536355966,5.802079411764694,9.55382559693254,1.9899537163750596,1.3406246849957226,0.649329031379337,1.9513574067361181,1.37123605002366,0.5801213567124581,111.68022269710535
114.065,2019-10-25,114.331,112.676,113.255,1210000,2.1556696168174625,1.5864324819678393,0.5692371348496232,110.52216666666668,108.19892307692308,111.02957931142228,108.87390969460482,0.4279953917050695,0.7392281105990782,-0.3112327188940087,0.20525781623699801,25.740112692239098,-3.3249000000000137,52.302799136344724,31.428714223008008,20.874084913336716,112.06,110.22550000000001,111.14275,107.1863,99.68040182874928,21.17289172100363,55.678088073692,32.53778637155839,88.18870109580364,106.57714999999999,104.6023,92.0,36.0,56.0,108.9740507393593,108.32557563015315,0.0,0.0,3230.3373712160164,1089.7924,14.54294369078732,35.15566729760896,1158399.1583746206,-1057482.8687732737,10.800137592980374,110.58715980677552,57.48802162747274,809.8119663374223,108.41490000000002,115.77340620438683,101.0563937956132,13.57471381588105,0.7895356667267405,0.0,0.0,112.25833333333333,111.19723333333334,113.31943333333334,-1.8904609902753995,0.3031916564571372,1.0,1.0,105.393,115.058,110.22550000000001,8.914826283103157,0.7535437144335226,2.273820835590113,2.2409640385021805,62.352142290523624,0.7014765031505744,0.8011018677936601,0.866317614507527,22.46522128682624,21.88039165762,74.52951240376386,81.8078129455374,-25.470487596236143,5.5655000000000285,8.184192334280667,1.9799689593808032,1.4684935398727388,0.5114754195080644,1.9738977810867575,1.4917683962362795,0.48212938485047796,111.80581683480557
113.761,2019-10-28,114.616,113.513,114.065,1169400,2.1940980192189414,1.7079655894180599,0.48613242980088156,111.22408333333333,108.35596153846154,111.41164403274193,109.21754601352299,0.3685836766507075,0.7218850907471331,-0.3533014140964256,0.22253049040568662,25.543215790800684,-1.0036500000000075,54.82761725591401,35.726184387189576,19.10143286872443,112.7175,110.22550000000001,111.4715,107.1863,99.84020091437463,21.811370297456314,55.88241880558007,30.016797453641807,88.99193826964238,107.28515,105.1678,88.0,32.0,56.0,109.58244566542336,108.32557563015315,0.0,0.0,3230.3373712160164,1203.5534,14.40103147234771,43.73599439795059,-265180.9495345512,-1080234.5918678062,11.645197383885266,111.21896456099763,64.26357596703411,815.827556310659,108.68665000000001,116.36959511954885,101.00370488045118,14.137789911730342,0.8140950459036606,0.0,0.0,112.76993333333333,111.75943333333335,113.78043333333332,-1.792144359991912,0.13232723074384903,1.0,1.0,105.393,115.058,110.22550000000001,8.892536479871268,0.8401448525607863,2.240438752031101,1.6387729334084808,64.24250523142834,0.7491313439450046,0.7400254768132358,0.8005436432317925,23.2708717612995,24.76999184778113,83.34949886841254,79.1411645786068,-16.650501131587454,5.1851470588235316,8.015034732134364,2.008924480822225,1.5765797280626361,0.43234475275958895,1.9465601527774046,1.5827267475445046,0.3638334052329,112.04974194672897
114.993,2019-10-29,115.269,113.366,113.761,1258200,2.1874752801406743,1.8038675275625828,0.38360775257809143,111.69766666666665,108.54307692307694,111.71231418155085,109.52483890141018,0.3627732454020869,0.7682708434008929,-0.405497597998806,0.23676039757461717,25.615303646532386,-1.2955500000000058,58.82489535985383,40.29201179590458,18.532883563949248,113.375,110.22550000000001,111.80025,107.1863,99.92010045718732,22.404243261305233,55.06212390648669,29.576182563223302,79.91917617810309,107.28515,105.1678,84.0,28.000000000000004,56.0,110.13000109888102,108.32557563015315,0.0,0.0,3230.3373712160164,1088.5604,14.158174415835777,35.073142198243275,-228836.53787622252,-1154954.2817982712,11.496280775214894,111.86597311271578,70.9803983676071,815.827556310659,108.99655,116.90613263058165,101.08696736941835,14.513455023267532,0.7762124251098873,0.0,0.0,113.35263333333333,112.26123333333335,114.44403333333335,-1.9256720693740688,0.4938763667460837,1.0,1.0,105.393,115.058,110.22550000000001,8.86725313782868,0.8249353336782197,2.191994876827991,1.0331828927841515,63.638140699876246,0.6866049492517668,0.7124042654491153,0.7511772033520038,23.767771545095286,11.037905368812762,80.08708956102146,79.32203361106595,-19.91291043897855,4.855079411764692,5.277527557738912,1.9972412669876198,1.660712035847633,0.3365292311399868,1.9897450465485251,1.664130407345309,0.3256146392032162,112.24310108360146
115.849,2019-10-30,116.125,113.78,114.653,1264900,2.190383672257255,1.8811707565015174,0.3092129157557375,112.20424999999999,108.81576923076923,112.0304196920815,109.84003601982424,0.35894621295279955,0.7656280784711086,-0.40668186551830904,0.2485966558866585,25.81992239309297,-1.9746500000000111,62.949940902179605,44.99657264415517,17.953368258024433,114.6945,110.22550000000001,112.46000000000001,107.1863,99.96005022859366,23.269011467727783,56.14223389122073,27.3338158933539,83.58270521966872,107.28515,105.1678,80.0,24.0,56.0,110.62280098899292,108.32557563015315,0.0,0.0,3230.3373712160164,1204.4094,13.83352027222783,36.91433416992283,-1110521.454652175,-1160385.0475440335,11.919348414542393,112.5075380812495,71.31942759560954,815.827556310659,109.46465,117.34301795979972,101.58628204020029,14.394360114977243,0.7738733467400588,0.0,0.0,113.92523333333331,112.86133333333335,114.98913333333333,-1.8677161658947488,0.5682551618259886,1.0,1.0,105.393,115.058,110.22550000000001,8.82933440156252,0.8677703052250383,2.2486953891451917,0.6115782521553697,64.64686418397883,0.6260824741555162,0.6872729224507625,0.7132342215710379,24.459744934494637,6.093625483373022,78.68579052701794,80.70745965215065,-21.31420947298205,4.637288235294108,5.644330136210442,1.9941578240760303,1.7274011934933127,0.2667566305827176,2.0602663502230865,1.7433575959208645,0.316908754302222,112.45438379709547
115.058,2019-10-31,115.849,114.598,115.416,1387600,2.232954251012316,1.9515274554036774,0.2814267956086387,112.79658333333334,109.11180769230768,112.42543204714588,110.19247779613356,0.3688458931542308,0.7185285599852118,-0.34968266683098104,0.2592882750226126,25.915150249014175,-1.6710000000000065,66.80637787882566,49.71600505788253,17.090372820943124,114.8735,110.4045,112.63900000000001,107.36529999999999,99.98002511429684,24.328395836508907,55.248561637522506,24.763610066115692,82.7177296681252,107.2714,105.1678,100.0,20.0,80.0,111.06632089009364,108.32557563015315,0.0,0.0,3230.3373712160164,1319.4674,13.586338509384829,45.086207002790964,-91636.82664395396,-700652.452194656,12.746536356184155,112.9762445138921,71.53712689119682,821.6927957293804,110.04400000000001,117.6378417681697,102.45015823183033,13.801464447256881,0.7998482282767938,0.0,0.0,114.4356,113.5482,115.32300000000001,-1.5509159737005036,0.40849673202614556,1.0,1.0,105.706,115.416,110.561,8.823743229980728,0.9157569515962927,2.2307258502306726,0.6037275957718135,66.61739794947164,0.7613136681978577,0.6913336972017136,0.6970036283671971,25.597225353202703,13.170163706851644,87.12621970412341,81.9663665973876,-12.87378029587658,4.58460294117647,6.612708158898506,2.0264125970045717,1.7872034741955647,0.23920912280900697,2.0350719608010026,1.8017004688968923,0.23337149190411033,112.741254426392
115.352,2019-11-01,116.263,115.076,115.61,960400,2.2789915505952223,2.0170202744419865,0.2619712761532358,113.35516666666666,109.45203846153845,112.83321173220037,110.55422018160515,0.3477369500078857,0.6976502129001736,-0.3499132628922879,0.26907022914556544,25.695083487444016,-1.1557000000000102,68.05180227284222,54.19075425000057,13.86104802284165,114.9705,110.5015,112.73599999999999,107.4623,99.99001255714842,25.37748391574097,53.12182752506614,23.303863496759377,81.6669099633655,107.26214999999999,105.1678,100.0,16.0,84.0,111.5882823832824,108.32557563015315,0.0,0.0,3230.3373712160164,1434.8194,13.625166547251721,46.52221400239217,-172092.37811221572,-682684.2438748732,13.227681367440884,113.4429702952186,71.78907475039428,821.6927957293804,110.52170000000001,118.11960442424741,102.9237955757526,13.749163149403968,0.7997076394818629,0.0,0.0,114.63946666666666,113.86156666666666,115.41736666666665,-1.357124248077443,0.2194155204182161,1.0,1.0,105.706,115.61,110.658,8.961136138875892,0.9460823909531496,2.174153265207606,0.5964862139668129,67.74865939818974,0.8389483878678148,0.7421148434070629,0.7069071543531796,26.872673466002205,12.720301323473278,91.84483811850939,85.88561611655025,-8.15516188149062,4.799347058823528,6.185119909940657,2.0614242919461323,1.8420476377456783,0.21937665420045405,2.0121468782013174,1.8437897507577774,0.16835712744354003,112.87952109781459
117.789,2019-11-04,117.872,115.858,116.115,1540500,2.3514710126548124,2.0839104220845517,0.2675605905702607,113.89616666666667,109.78803846153846,113.29856377340032,110.9470927607455,0.2847012673506345,0.7351538925769464,-0.4504526252263119,0.2786671519291353,25.744586072002434,1.8746500000000168,69.10129672386886,58.10219378163859,10.999102942230266,115.223,110.75399999999999,112.98849999999999,107.7148,99.99500627857421,26.525006339508042,52.8454194718594,21.87796026285126,92.34937694401904,107.26214999999999,105.1678,100.0,12.0,88.0,112.15132284962287,108.32557563015315,0.0,0.0,3230.3373712160164,1552.6084,13.526662958664634,53.034897430622046,-1576674.3923456322,-834804.2954076985,14.028117583506788,114.02558472442716,78.54598303747744,821.6927957293804,110.99434999999998,118.68462537283276,103.30407462716721,13.857057359825564,0.8162207960186775,0.0,0.0,114.8105,113.9129,115.70810000000002,-1.5636200521729477,-0.08350044563279092,1.0,0.0,105.706,116.115,110.9105,9.377954823826611,0.9753098280334335,2.2363379386868463,0.5784924492480344,69.5657198494224,0.956694897558229,0.8523189845413005,0.7619225083833591,28.479535379956715,20.410109339967022,95.52108748692939,91.49738176985404,-4.478912513070596,5.035550000000001,5.936031307719039,2.1194525734222687,1.8975286248809966,0.22192394854127206,2.1410274233351507,1.9032372852732522,0.23779013806189853,113.0055483381045
118.525,2019-11-05,118.699,117.522,117.679,1509100,2.5142002662609997,2.1699683909198413,0.3442318753411584,114.28391666666666,110.15126923076923,113.9483231928772,111.4341229266162,0.2778751435305501,0.7533994077476284,-0.4755242642170783,0.2901379265416138,25.741764878323888,2.5514499999999742,72.22523720431172,61.530944674385864,10.69429252992586,116.005,111.536,113.7705,108.49680000000001,99.9975031392871,28.080716721006297,56.26627733838533,19.61288475406927,113.80138925594962,107.26214999999999,105.1678,100.0,8.0,92.0,112.7855111936832,108.32557563015315,0.0,0.0,3230.3373712160164,1671.1334000000002,7.5403000606197,73.6335692262475,-1028820.9238557249,-818061.3249926092,15.730422128725946,114.64894034822557,78.78372669556599,821.6927957293804,111.70655000000002,119.03628747074193,104.37681252925812,13.123200870032962,0.8967024755807083,0.0,0.0,115.14673333333333,114.20783333333334,116.08563333333333,-1.6307887732811586,-0.7649199417758423,1.0,0.0,105.779,117.679,111.729,10.65291157949109,0.986806722689076,2.296804144818161,0.5784924492480344,73.04572943282008,1.0,0.9318810951420146,0.8421049743634593,30.9566401994645,28.080558027083555,97.37765157841997,94.91452572795292,-2.6223484215800275,5.497173529411768,4.122478271270238,2.256221164783341,1.9692671328614655,0.2869540319218753,2.2667613746486928,1.9759421031483404,0.29081927150035236,113.7065602887215
119.334,2019-11-06,119.573,117.991,118.598,1276100,2.650455946251455,2.266065901986164,0.3843900442652908,114.59499999999998,110.56753846153846,114.57027347089608,111.91981752464463,0.2643750392760645,0.7467165210833913,-0.4823414818073268,0.3025704562027039,25.799905578041567,0.9674999999999869,74.47409009239982,64.39600631406005,10.078083778339774,116.4645,111.99549999999999,114.22999999999999,108.9563,99.99875156964356,29.780221062312375,58.06756443300102,18.400625651059986,129.36041169621305,107.26214999999999,105.1678,100.0,4.0,96.0,113.66633917882022,108.32557563015315,0.0,0.0,3230.3373712160164,1790.4674000000002,7.550992674070914,71.10986590821204,-732471.4666398437,-716957.53850034,16.2066533535179,115.25731554391199,78.99809618452177,821.6927957293804,112.39850000000001,119.34792367394576,105.44907632605427,12.365687574025888,0.9023714959966368,0.0,0.0,115.51053333333334,114.56243333333332,116.45863333333332,-1.6415818932530315,-0.8081250219737734,1.0,0.0,106.561,118.598,112.5795,10.709217649701722,0.9495721525297001,2.2722237303363437,0.5784924492480344,73.94986104504727,1.0,0.9855649658527431,0.923255015178686,33.29923787752279,26.431602540053138,85.77454886337006,92.89109597623981,-14.225451136629948,5.985752941176472,3.2671672880673603,2.368173934582968,2.049048493205766,0.319125441377202,2.39322360623396,2.0593984037654645,0.33382520246849534,114.31955300582185
119.389,2019-11-07,119.932,118.856,119.463,1169900,2.7960071947197633,2.372054160532884,0.42395303418687913,115.0525,111.12284615384617,115.22961601383516,112.43360881911539,0.25137037168016463,0.6979877639070627,-0.4466173922268981,0.3159968721566048,25.820357010721434,1.1621999999999986,77.59486389349341,67.20623573152102,10.388628161972392,117.0395,112.428,114.73375,109.56354999999999,99.99937578482178,31.5831551471467,58.12565536071735,16.864885960878105,147.01981110465925,107.066775,105.1678,100.0,0.0,100.0,114.65267134305618,108.32557563015315,0.0,0.0,3230.3373712160164,1909.8564000000001,7.644718871609188,75.70438292132452,-240414.10850246335,-363730.32396465825,17.08190218605598,115.67942784325669,79.14116873900835,821.6927957293804,113.0868,119.7243062063999,106.44929379360009,11.73878154904004,0.9345909307351996,0.0,0.0,116.01266666666666,115.02126666666668,117.00406666666667,-1.709123716375796,-0.9339990585703667,1.0,0.0,109.062,119.463,114.26249999999999,9.197359904073682,0.9416402269012596,2.2391013573027094,0.5784924492480344,75.57702243092191,1.0,1.0,0.9724820203315859,35.797617055631136,28.141086198450694,88.17225253312547,90.44148432497184,-11.82774746687452,6.547208823529402,4.842721803715396,2.4868073026260458,2.136600255089822,0.35020704753622356,2.4665429700018495,2.1408273170127416,0.3257156529891079,115.74125883151503
119.02,2019-11-08,120.035,118.447,120.017,863300,2.845552962668222,2.466753920959952,0.37879904170827006,115.40233333333335,111.71653846153845,115.72459816555283,112.87904520288461,0.26479471976731206,0.6678226498116874,-0.4030279300443753,0.3280722541151031,25.437490292444192,-0.480000000000004,79.42346273589453,69.93910745151885,9.484355284375681,117.643,112.8615,115.25225,110.259,99.99968789241089,33.39597818124165,57.4366493050638,15.74845453532506,141.9412628631686,106.60225,105.1678,100.0,8.0,92.0,115.61473707444495,108.32557563015315,0.0,0.0,3230.3373712160164,1790.8364000000001,16.657111564955535,57.935302503992595,-4968.072592841701,-320614.888960769,16.67233783928343,116.0136030093667,79.25709722780404,818.8652367213933,113.625,120.16747580048998,107.08252419951002,11.515908999762344,0.8685149282202062,0.0,0.0,116.62056666666665,115.73496666666665,117.50616666666667,-1.5187715603051337,-0.5311841312857492,1.0,0.0,109.062,120.017,114.5395,9.641364136413639,0.8566864445458701,2.1330912215724385,0.5857573583500125,73.24730047514606,0.823837953082145,0.9412793176940483,0.9756147611822638,37.27785547542188,25.597445398820696,72.38832219486467,82.11170786378673,-27.611677805135336,7.0481823529411685,3.6744304107694665,2.520886810792677,2.2134575662303932,0.3074292445622837,2.468812856569525,2.2064244249240983,0.2623884316454266,116.6184574105717
119.278,2019-11-11,119.5,118.152,118.318,916600,2.8284101545062583,2.539085167669213,0.2893249868370451,115.81958333333331,112.20230769230768,116.09804460162164,113.26963444711538,0.30938686515544583,0.670914627269652,-0.3615277621142062,0.33748513449616424,25.2467743249928,-1.4715499999999935,80.34609797900181,72.33035218697974,8.015745792022074,117.93299999999999,112.8615,115.39725,110.866,99.99984394620544,34.597664776790914,57.4366493050638,19.033602153683717,110.21956143829007,106.90575,105.1678,96.0,4.0,92.0,116.49518965955596,108.32557563015315,0.0,0.0,3230.3373712160164,1671.5584000000001,16.474680507964912,44.6321150034222,1106904.8776807114,-241719.62456089671,16.37526817943556,116.30651756490023,78.85956984762213,818.8652367213933,114.14755,120.37585203105122,107.91924796894877,10.91272135240963,0.821472046477178,0.0,0.0,117.07976666666666,116.13106666666667,118.02846666666667,-1.6206045280240606,-0.06510663715259143,1.0,0.0,109.062,120.017,114.5395,9.597227448158106,0.829758101323597,2.0250820994151946,0.5697695586371476,71.53447505104343,0.6943225695082378,0.8393868408634609,0.9268887195191698,38.076275504141435,23.362903037272506,67.20014069644746,75.92023847481254,-32.79985930355254,7.142208823529401,4.425294975473954,2.497059488460536,2.270177950676422,0.22688153778411424,2.458873123309328,2.2569141646011444,0.2019589587081838,117.00961460382551
120.248,2019-11-12,120.765,119.371,119.454,843600,2.8799887503393933,2.6072658842032492,0.27272286613614405,116.3775,112.70100000000001,116.60157620137215,113.72158745103276,0.2930665565524242,0.7234881189233836,-0.4304215623709594,0.3461678376663937,25.346293922600225,-1.228599999999986,82.31504099738338,74.4820299753357,7.833011022047671,117.93299999999999,112.8615,115.39725,110.866,99.99992197310272,36.0315745788419,59.80008532219272,17.524743861056773,129.97295562616398,106.90575,105.1678,92.0,0.0,92.0,117.19955172764477,108.32557563015315,0.0,0.0,3230.3373712160164,1791.8064000000002,16.28686077935821,59.19642886007607,-1308841.3112900057,-319999.73270238953,17.615893069407797,116.65350828503847,78.99700932645034,818.8652367213933,114.74159999999999,120.57018955151213,108.91301044848785,10.159505447914512,0.8971286671574753,0.0,0.0,117.6529,116.7239,118.58189999999999,-1.5792215916479662,-0.4247039827771847,1.0,0.0,110.377,120.017,115.197,8.4014864704693,0.9329875518672198,2.083873889473675,0.569765669475522,74.21743378035293,0.8971946334382405,0.8051183853428744,0.8619281813001279,39.54424579953061,26.14742391235905,88.63876187126272,76.07574158752494,-11.361238128737277,7.156088235294135,5.941815470907729,2.5324908092577267,2.3226405223926827,0.20985028686504403,2.487919160283359,2.3031151637375875,0.1848039965457713,117.72991068104162
120.312,2019-11-13,120.663,119.149,119.315,893800,2.8698695447916833,2.659786616320936,0.21008292847074728,116.84716666666667,113.31142307692306,116.9934875550072,114.12361801021552,0.306510445451532,0.7539515861611591,-0.4474411407096271,0.3528471370865898,25.372881740063995,-1.9144000000000148,83.57568820176262,76.34528667788426,7.230401523878356,118.14,112.898,115.519,110.866,99.99996098655136,37.268323652930306,59.80008532219272,18.19355167372761,110.45908507412835,106.90575,105.1678,88.0,0.0,88.0,117.76304138211582,108.32557563015315,0.0,0.0,3230.3373712160164,1671.4944000000003,16.21402183177464,46.924187022922446,135010.6390052527,-311438.83907036035,17.392143046370386,117.03342807459404,78.42090111722827,818.8652367213933,115.28040000000001,120.62684331869295,109.93395668130708,9.275546092298315,0.8617919212267791,0.0,0.0,118.13853333333334,117.22193333333333,119.05513333333333,-1.551737564599305,-0.05120372390719522,1.0,0.0,111.692,120.017,115.8545,7.221522479103128,0.8957357357357364,2.0046865005263075,0.509239966851283,72.87039569497446,0.7953382785164557,0.795618493820978,0.8133745733424379,40.41462896519129,24.083531552153477,84.73443545550482,80.191112674405,-15.265564544495183,6.966861764705882,4.965070080078929,2.514702560985048,2.361052930111156,0.15364963087389194,2.485226339502566,2.339537398890583,0.1456889406119828,118.1022516111332
119.786,2019-11-14,120.478,119.26,119.897,738400,2.8380910271142312,2.695447498479595,0.14264352863463614,117.33833333333332,113.8925,117.3421817773138,114.50409075019957,0.2675927283389539,0.7679958950300553,-0.5004031666911013,0.35734938012891804,25.22681249773713,-1.9950999999999937,84.94487784053247,78.22229507429428,6.72258276623819,118.9445,113.289,116.11675,111.459,99.99998049327567,38.58353823884796,60.703495363274165,17.280802688846286,103.38895825772832,107.20224999999999,105.1678,84.0,0.0,84.0,118.21383310569266,108.32557563015315,0.0,0.0,3230.3373712160164,1791.2804000000003,16.266897747033955,42.12019544821931,-96278.78049187668,-401058.69184653874,17.50373647980247,117.49007403273946,85.25823672997818,819.6280970162852,115.7751,120.65126258547602,110.89893741452397,8.423508311331235,0.8573404228132198,0.0,0.0,118.59759999999999,117.6662,119.529,-1.5706894574595045,0.14440627013098145,1.0,1.0,114.331,120.017,117.174,4.91124602785918,0.866865986633839,1.9371178504736761,0.3507261588996059,73.13296764365148,0.7952861212357141,0.82927301106347,0.8100032967424408,41.2146070183503,18.68519473417905,85.98407702277372,86.4524247831804,-14.015922977226278,6.715052941176467,5.199089674152749,2.478593566849737,2.384561057458872,0.09403250939086494,2.418124881346968,2.35525489538186,0.06286998596510784,118.38646650845813
119.555,2019-11-15,120.691,119.168,120.34,767300,2.773511379052252,2.7110602745941264,0.06245110445812552,117.78733333333334,114.43396153846155,117.6230768884963,114.84956550944405,0.2678991596638657,0.7614192343604116,-0.4935200746965459,0.35929212045868436,24.815510881394136,-1.4920499999999919,86.41638353444922,80.14619360880323,6.270189925645994,119.5195,114.701,117.11025,112.66900000000001,99.99999024663784,39.929578444706614,59.27902465869538,16.030306060071958,96.80401459324875,107.7265,105.1678,100.0,8.0,92.0,118.57446648455412,108.32557563015315,0.0,0.0,3230.3373712160164,1671.7254000000003,16.560025955238512,34.531730384188,-96297.10175233218,-388995.5598620945,17.411508909787376,117.911764880938,85.36239894757244,818.99581641151,116.09004999999999,120.98836176937482,111.19173823062516,8.438814126404164,0.8141847788501276,0.0,0.0,119.03926666666666,118.13806666666667,119.94046666666668,-1.514122230815719,0.428576712531442,1.0,1.0,114.331,120.34,117.3355,5.176154200984495,0.8049592278249298,1.8865060654263082,0.30774482638496425,72.50659624636528,0.7428212914973139,0.7778152304164946,0.8009022451003142,41.736584909123984,15.8605646143609,76.88818773417476,82.53556673748443,-23.111812265825233,6.484070588235312,4.735454385656535,2.4149080292551797,2.390630451818134,0.02427757743704584,2.3217768059276405,2.3485592774910162,-0.026782471563375765,118.5566220853191
119.02,2019-11-18,119.805,118.401,119.094,1048900,2.630122636222467,2.6948727469197946,-0.06475011069732783,118.10425,114.84619230769232,117.74275736718917,115.1126347309667,0.3085048331774247,0.7685531649516686,-0.46004833177424387,0.3573522215340867,24.505183546154775,-1.2212000000000103,85.30912301684744,81.59995869908497,3.709164317762472,119.92,114.701,117.31049999999999,112.8665,49.99999512331892,40.299574842884226,59.27902465869538,22.423432055042632,61.074961409988056,107.82525,105.1678,96.0,4.0,92.0,118.9275731876433,108.32557563015315,0.0,0.0,3230.3373712160164,1552.7054000000003,16.509495760111747,16.557434615018117,636805.5788943163,-327163.9800927703,16.645461480947404,118.25910587382889,78.21350099981285,813.7245204999596,116.2972,121.21844275361376,111.37595724638625,8.463217951272695,0.7137468222285047,0.0,0.0,119.28776666666666,118.49116666666669,120.08436666666667,-1.3355937867895216,1.0565946941166777,0.0,1.0,114.331,120.34,117.3355,5.166934371592782,0.6773173572973861,1.7615554588836773,0.31358837180596133,67.32916689324901,0.2454038311860997,0.5945037479730425,0.7338639964843358,40.869569873418385,6.226125112661381,56.8247606323757,73.23234179644139,-43.1752393676243,6.31424411764705,3.318557042880327,2.2848253298774783,2.369469427430003,-0.08464409755252467,2.18338531085217,2.315524484163247,-0.13213917331107705,118.54117950693333
118.9,2019-11-19,119.426,117.866,119.426,1273400,2.4451300583789077,2.6449242092116174,-0.19979415083270968,118.33675000000001,115.23715384615386,117.76171777223698,115.31658771385807,0.32095978597107316,0.739319454895076,-0.41835966892400284,0.3512500781744124,24.18154221098265,-0.6641999999999939,82.70412640550866,82.51440717831927,0.18971922718938572,119.88300000000001,114.701,117.292,112.8665,24.99999756165946,40.28251713525178,54.90575778691335,23.497008366709807,50.03007939996622,107.71275,105.1678,92.0,0.0,92.0,119.21005855011464,108.32557563015315,0.0,0.0,3230.3373712160164,1433.8054000000002,16.183230244029637,5.104729670015587,-0.0,-247841.01904618638,16.10820672803147,118.54290338010446,71.12774954602523,810.047671330886,116.5222,121.29608418795385,111.74831581204614,8.193947913708897,0.6407449308668682,0.0,0.0,119.3817,118.68710000000002,120.07629999999999,-1.163662437375221,1.591059602649029,0.0,1.0,114.331,120.34,117.3355,5.156957215019971,0.5882842403062067,1.68789991299531,0.4465153638483768,63.901558367632724,0.0,0.3294083742278045,0.5672424508724472,39.21023475636682,4.410695778554221,44.912046314851835,59.541664893800764,-55.087953685148165,5.792000000000002,2.424484688379859,2.1203628262450454,2.3196481071930117,-0.19928528094796638,2.0418344910477044,2.2607864855401387,-0.2189519944924343,118.53358215274767
116.786,2019-11-20,118.891,116.776,118.623,1343500,2.1853765565541607,2.5530146786801264,-0.3676381221259657,118.41324999999999,115.59430769230768,117.61006888420052,115.42469232764635,0.3397150100533266,0.7441646997115134,-0.40444968965818684,0.340041213675959,23.737773957402805,0.8734500000000054,79.35256014947302,82.70970676231701,-3.357146612843991,119.6155,115.35849999999999,117.487,112.8665,12.49999878082973,39.76411209844851,51.86265663884926,26.111733795139802,21.745024240878525,107.71275,105.1678,88.0,0.0,88.0,119.21005855011464,120.34,0.0,1.0,3230.3373712160164,1317.0194000000001,16.763780707228754,-13.809765997129553,153521.82624629635,-230329.6866968828,15.028194341083578,118.73675174663448,64.22131484751031,802.556520687353,116.64855,121.30746706193572,111.98963293806428,7.987955378675045,0.5136780713528137,0.0,0.0,119.3193,118.69539999999999,119.94320000000002,-1.0457654377791576,2.5382272800127867,0.0,1.0,114.331,120.34,117.3355,5.151371362953076,0.4068896655017462,1.6216099216957793,0.7327581126456948,57.481041363745234,0.0,0.08180127706203323,0.3352377997542934,35.91462503040558,-3.3401792334213654,12.582781456953427,38.10652946806032,-87.41721854304657,5.145644117647066,0.7923492551226433,1.8933353968583397,2.2343855651260776,-0.3410501682677378,1.7650947834670825,2.1616481451255276,-0.3965533616584451,118.46671941578322
116.029,2019-11-21,116.832,115.687,116.776,1114000,1.8700896071865714,2.4164296643814156,-0.5463400571948442,118.26033333333334,115.87561538461537,117.31421213278506,115.44412252559849,0.45361794160515373,0.8448446095256014,-0.39122666792044763,0.3233669773890425,23.120240835321685,1.2153500000000008,75.24938716123202,82.24592058735452,-6.996533426122497,118.586,116.01599999999999,117.30099999999999,112.8665,6.249999390414865,37.645332639126536,51.86265663884926,42.34641064700077,-36.756934375804455,107.791,105.1678,84.0,0.0,84.0,119.21005855011464,120.31102,0.0,0.0,3230.3373712160164,1200.9904000000001,13.680415847042354,-29.887739568968165,94259.19382223018,-211304.57441585092,13.946160524203401,118.79002474321967,57.417328928968395,795.0722426590893,116.77565,121.17688093122773,112.37441906877227,7.537925811121976,0.37632437186199624,0.0,0.0,119.02076666666667,118.43816666666666,119.60336666666667,-0.9789888207184121,3.361111111111082,0.0,1.0,114.331,120.34,117.3355,5.1457645493730935,0.2256615077383915,1.465048929526201,1.1032927666718089,51.873293961316755,0.0,0.0,0.13706988376327925,31.32000080066965,-28.00636729557383,-32.63968072976034,8.285049014014973,-132.63968072976033,4.166326470588231,-1.5614097785946528,1.6199088929554635,2.1114902306919547,-0.49158133773649126,1.4770192420112906,2.02472236450268,-0.5477031224913895,118.03983395746
115.779,2019-11-22,116.324,115.641,116.269,816100,1.5980888393665396,2.2527614993784404,-0.6546726600119008,118.06450000000001,116.11696153846152,117.05679488158736,115.45870604222083,0.526582940868655,0.845578231292518,-0.318995290423863,0.3030848077068508,22.464988216893385,1.9320999999999913,71.99560054286255,81.3180875388946,-9.322486996032055,118.332,117.3355,117.83375,112.8665,3.1249996952074324,35.33357339232546,49.42034680238458,44.462663678755085,-57.932148825321605,107.9035,105.1678,80.0,20.0,60.0,119.21005855011464,120.1718592,0.0,0.0,3230.3373712160164,1085.2114000000001,14.741872743901814,-26.3788959162583,24108.43071713858,-96962.94419708161,13.900123942737899,118.75524563392281,50.54398618849358,794.7561023567017,116.9239,120.94621047533575,112.90158952466426,6.8802194852134475,0.34052697972141077,0.0,0.0,118.6786,118.0923,119.26489999999998,-0.9880467076625343,3.0904826880436747,0.0,1.0,114.616,120.34,117.47800000000001,4.8954918541033985,0.1790705800139771,1.382244036573581,1.3837163801635999,51.64410210520007,0.0,0.0,0.027267092354011077,27.474024851522927,-30.743609175065618,-17.00697211155358,-12.354623794786832,-117.00697211155358,3.054305882352935,-1.9916773313218754,1.3841215566560672,1.9660164958847772,-0.58189493922871,1.2174865367417487,1.8632751989504939,-0.6457886622087452,117.70495233197333
117.977,2019-11-25,118.272,115.927,116.416,2404900,1.3895858008822728,2.0801263596792072,-0.6905405587969344,117.82041666666667,116.23457692307693,116.88298028442007,115.4933944835378,0.5270899470899467,0.8242328042328048,-0.29714285714285804,0.28119846724880726,22.428731983644273,1.4024000000000143,68.684372062833,79.803568768389,-11.119196705555993,118.332,117.3355,117.83375,112.8665,1.5624998476037162,33.27800722966325,47.49391801736355,41.64995995295465,-37.32533388614128,109.32875000000001,106.2113,76.0,16.0,60.0,119.21005855011464,119.940987648,0.0,0.0,3230.3373712160164,1203.1884000000002,14.647041928799242,-17.790279071078523,-1647914.4239979049,-141183.90849295162,14.191901270848167,118.67774974715297,50.495368486645525,794.7561023567017,117.04459999999999,120.78527129804203,113.30392870195794,6.391873350914174,0.3506150486164128,0.0,0.0,118.5001,117.84639999999999,119.1538,-1.1032902081939302,2.468104635153709,0.0,1.0,115.269,120.34,117.8045,4.332536486091625,0.12975744429106714,1.507119632916223,1.5840573619446454,53.03353045388634,0.05805511110957022,0.019351703703190073,0.0064505679010633575,24.56421626434099,-25.927871206920255,-9.88545816733045,-19.844037002881457,-109.88545816733046,2.2903676470588294,-2.4643265800632594,1.2031733997396203,1.8134478766557458,-0.6102744769161255,1.1495043546583055,1.7205210300920561,-0.5710166754337507,117.53405485900909
119.749,2019-11-26,119.758,118.115,118.217,2273400,1.38493429436744,1.941087946616854,-0.5561536522494139,117.79275,116.38292307692306,117.07252177912467,115.68758748475723,0.47949709864603485,0.8233075435203103,-0.3438104448742755,0.26242166606208733,22.68985672725417,0.8699500000000029,64.96025636086812,77.73518745273405,-12.774931091865938,118.332,117.3355,117.83375,112.8665,0.7812499238018581,32.37587969986617,52.71410496592799,34.670697186978074,31.4287699469626,110.267,107.1313,72.0,12.0,60.0,119.21005855011464,119.72396838912,0.0,0.0,3230.3373712160164,1322.9374000000003,14.600803893774199,22.18130536764677,-2114951.6906195367,-239932.49592007254,16.452037494506154,118.67603105816805,50.50701427432339,794.7561023567017,117.28205,120.6420832423944,113.92201675760559,5.729833751020567,0.6239496665524691,0.0,0.0,118.38343333333334,117.70673333333335,119.06013333333333,-1.1432342870046674,0.6983399832520655,1.0,1.0,115.849,120.34,118.09450000000001,3.8292304747401666,0.5045646849254044,1.7395076696245997,1.608824211636452,62.02365713235756,0.4336936272671285,0.16391624612556624,0.06108931660958544,24.418102821513006,-3.5620136792135146,44.596613545816595,5.901394422310855,-55.403386454183405,1.7934911764705959,-0.2802941399951099,1.19713300664163,1.6901849026529228,-0.49305189601129285,1.2030979920461264,1.6170364224828702,-0.4139384304367437,117.55334252750554
119.269,2019-11-27,119.749,118.558,119.749,919400,1.4008462559940824,1.8330396084922997,-0.43219335249821733,117.82658333333335,116.5826153846154,117.30105689002856,115.90021063403448,0.481765081234968,0.8454326805085167,-0.36366759927354875,0.2467674565870972,22.74119019491088,1.850049999999996,61.69361806954336,75.15171414484638,-13.458096075303018,118.332,117.3355,117.83375,112.8665,0.39062496190092905,32.22619895836831,57.396173093816614,30.715615666165963,57.0930366266597,110.4625,107.1313,68.0,8.0,60.0,116.324,119.72396838912,1.0,0.0,3230.3373712160164,1442.2064000000003,14.472718900064834,26.56057131512601,0.0,-222760.059598468,16.899365666203252,118.67131217779136,50.50147195008312,797.7369003361628,117.52095,120.50997482257932,114.53192517742067,5.086794860966193,0.6734763110975278,0.0,0.0,118.34773333333332,117.80583333333334,118.88963333333334,-0.9157758830474686,0.30599126530109805,1.0,1.0,115.849,120.34,118.09450000000001,3.821446303829232,0.603206412825652,1.7289569026621396,1.6190886122540973,63.54516473810573,0.5272178163228566,0.3396555182331851,0.17430782268731382,24.75436166455932,2.0803118030232626,55.62749003984079,30.112881806108977,-44.37250996015921,1.5833176470588342,0.3436251608098093,1.2086658413567364,1.5938810903936855,-0.38521524903694915,1.1984520108124055,1.5333195401487774,-0.33486752933637187,117.5673443535704
118.946,2019-11-29,119.472,118.641,119.158,450100,1.4039699153198768,1.7472256698578152,-0.34325575453793844,117.76575000000001,116.75153846153846,117.50720198387032,116.10323206855044,0.5132782971951467,0.8419037199124738,-0.3286254227173271,0.23351979735197892,22.8499693464825,1.4258999999999986,57.55424281775162,71.94480962076886,-14.390566803017244,118.03649999999999,117.3355,117.68599999999999,112.8665,0.19531248095046452,31.872339276002812,54.918765238182054,31.382533912856108,38.68443104723892,111.14275,107.1863,64.0,4.0,60.0,116.3925,119.72396838912,0.0,0.0,3230.3373712160164,1561.1524000000002,14.432476645587752,24.17656369867941,114569.63664183424,-214221.65179599117,16.982637296966256,118.64197367069603,43.3015990838394,798.295379415836,117.7231,120.42735330914012,115.01884669085989,4.59426112486014,0.6697141308651801,0.0,0.0,118.26893333333332,117.75373333333334,118.78413333333333,-0.8712347113978532,0.1389104554865355,1.0,1.0,116.263,120.34,118.3015,3.463211553212579,0.5832720137355902,1.6474612123959242,1.624716160655234,63.83749818403132,0.5401682061958484,0.5003598832619445,0.334643882540232,25.111870364798193,5.738051877763195,57.694223107569826,52.63944223107574,-42.305776892430174,1.7862676470588355,-0.6115388159603169,1.2092427491518372,1.516953422145316,-0.3077106729934789,1.1591104738588482,1.4584777268907918,-0.29936725303194356,117.58301920183355
118.632,2019-12-02,119.703,118.429,119.435,1145700,1.373505888691156,1.6724817136244834,-0.2989758249333274,117.70575000000001,116.95476923076923,117.6490170632749,116.27551117458374,0.4295372073370782,0.8429189242928881,-0.4133817169558099,0.2216202259485575,22.82924602287179,1.369250000000008,53.675546469158576,68.42996778213677,-14.754421312978195,118.03649999999999,117.3355,117.68599999999999,112.8665,0.09765624047523226,31.66979745781301,53.75793179417929,29.563959375848746,40.1848740273742,111.14275,107.1863,60.0,0.0,60.0,116.45963,119.72396838912,0.0,0.0,3230.3373712160164,1442.5204,14.709568400173396,17.129914027439437,-57380.80787645953,-297384.9150500748,16.770653379096373,118.67998856082443,50.47745245187077,796.8689027304055,117.89075,120.31949270971529,115.4620072902847,4.120327862390042,0.6108083614305734,0.0,0.0,118.18120000000002,117.67429999999999,118.68809999999999,-0.8578352563690361,0.25557309133950346,1.0,1.0,116.324,120.34,118.332,3.4065437703975974,0.5241533864541835,1.5889150911563317,1.6306820994040818,62.45976175709459,0.47913439662075397,0.5155068063798196,0.45184073595831636,25.03334162064636,10.716075285861049,52.41533864541836,55.24568393094299,-47.58466135458164,2.146752941176473,-0.604285390561397,1.1812512151667804,1.4498129807496092,-0.26856176558282874,1.0937787366203844,1.3855379288367105,-0.29175919221632607,117.5974370820858
118.134,2019-12-03,118.383,116.389,116.712,1896000,1.1712505300653362,1.572235476912654,-0.4009849468473179,117.4665,117.09757692307693,117.45516828430954,116.2839177542442,0.6027782113313563,0.8096352947297244,-0.20685708339836806,0.20721474650558974,23.15154950574893,1.250700000000009,49.18790686577274,64.70594338883278,-15.51803652306004,118.03649999999999,117.47800000000001,117.75725,112.8665,0.04882812023761613,30.46115434903496,53.5642716211968,39.794917237164114,-106.74828288963847,111.14275,107.1863,56.00000000000001,0.0,56.00000000000001,116.52541740000001,119.72396838912,0.0,0.0,3230.3373712160164,1324.3864,14.712297925826514,-19.744839405052012,2859402.4582253965,346.782772453901,14.735734904736203,118.48606204268678,43.291469272877606,783.1424289649424,117.9173,120.26689733571418,115.56770266428582,3.985161355821715,0.17477406090617176,0.0,0.0,117.98733333333334,117.38443333333332,118.59023333333332,-1.0219741102152178,1.8255376789959585,0.0,1.0,116.324,120.34,118.332,3.4057767604923157,0.01618525896414284,1.6017235820406985,1.7530188024533822,51.043805034569374,0.0,0.3397675342722007,0.45187807463798824,21.4022123309291,-0.24352759557882955,1.618525896414284,37.242695883134154,-98.38147410358572,1.9276000000000124,-2.407345295991958,1.007233461587243,1.3612970769171362,-0.3540636153298933,0.9964963525301263,1.3077296135753937,-0.3112332610452675,117.54119701789794
119.186,2019-12-04,120.386,118.752,119.223,2105900,1.1879421946169941,1.4953768204535223,-0.30743462583652814,117.43183333333333,117.29907692307691,117.65468085595423,116.46673866133723,0.5005929034023533,0.8221745872480171,-0.32158168384566377,0.1953857850153999,23.3942584243364,0.4222000000000179,45.68980768485183,60.96563755943042,-15.27582987457859,118.03649999999999,117.8045,117.9205,112.8665,0.024414060118808065,30.46474289768769,60.32342688444555,32.11819835863363,55.00292279495936,111.4715,107.1863,52.0,0.0,52.0,116.589889052,119.72396838912,0.0,0.0,3230.3373712160164,1443.5724,14.73376301499205,23.30964022424112,-2202348.4301847448,-166607.43645540305,17.155521293484284,118.46687385075013,50.57741167472626,783.1424289649424,117.97879999999998,120.34809758367221,115.60950241632774,4.016480221314738,0.6631707231139818,0.0,0.0,118.0421,117.3229,118.7613,-1.2185482975989088,0.006465517241386464,1.0,1.0,116.324,120.34,118.332,3.404001396861136,0.6045816733067714,1.8412512238366285,1.7560081407948849,60.13331299684357,0.41149174023179064,0.2968753789508482,0.3840499065342895,21.13732760807987,12.616319337254927,60.45816733067714,38.164010624169926,-39.54183266932286,1.788029411764711,-0.3490870032223508,1.019984081525027,1.2930344778387144,-0.27305039631368744,0.9798652778225243,1.24215674642482,-0.2622914686022957,117.55826667567459
121.06,2019-12-05,121.272,119.712,119.786,1653900,1.2640631033726635,1.4491140770373505,-0.18505097366468704,117.54108333333333,117.54315384615384,117.97119149349973,116.70712839012707,0.4676212311286063,0.8181424925379599,-0.3505212614093536,0.18702747177536388,23.637343224985127,-0.19884999999997888,42.899152153357875,57.371167002999954,-14.472014849642079,118.055,118.09450000000001,118.07475000000001,112.8665,1.474812607133434,30.68019945354839,59.90951537613943,29.855252536391248,102.70995789122715,111.80025,107.1863,48.0,4.0,44.0,116.65307127096,119.72396838912,0.0,0.0,3230.3373712160164,1564.6324,14.666354610722909,36.58220590649253,-889316.8676689345,-223253.01411090718,18.134179337138285,118.49556499090026,50.627321804942845,783.1424289649424,118.06484999999998,120.55175959023342,115.57794040976654,4.2127857533100475,0.8311640291365422,0.0,0.0,118.25809999999998,117.4171,119.09909999999999,-1.4223127210736417,-0.36438763376933103,1.0,0.0,116.324,120.34,118.332,3.4015204355911233,0.8436254980079683,1.9091261014529668,1.7558322733372622,63.12844754871628,0.5630508350426116,0.32484752509146736,0.3204968127715054,21.95115824846385,16.588655942460935,84.36254980079683,48.81308100929609,-15.637450199203169,1.6517941176470572,1.1072541617047214,1.0831070225180846,1.2510489867745886,-0.1679419642565041,1.0815403123030534,1.2100334596004667,-0.12849314729741335,117.68922538723471
122.362,2019-12-06,123.544,122.214,122.648,1126900,1.508886458057333,1.461068553241347,0.04781790481598591,117.90341666666666,117.86753846153846,118.62393126373054,117.11504480567321,0.4721373148365857,0.8573164041069058,-0.3851790892703201,0.1852093988611571,23.906136596702833,-1.4567500000000138,42.139905166300125,54.05386751671525,-11.913962350415126,120.46000000000001,119.2485,119.85425000000001,114.0205,39.743012770241,31.781141819922745,66.56911967306023,24.56316015997372,238.0599972751035,112.46000000000001,107.1863,100.0,0.0,100.0,116.7783884201216,119.72396838912,0.0,0.0,3230.3373712160164,1686.9944,14.569242872284248,75.0918513484221,-1879694.6764518365,-350638.55516087177,20.69156476215832,118.69964783661055,50.795461452319586,783.1424289649424,118.23275000000001,121.29703835947191,115.16846164052811,5.183484879564929,1.1496206513485752,1.0,0.0,118.89513333333335,117.97013333333332,119.82013333333332,-1.5559930403655384,-1.2939819819819942,1.0,0.0,116.324,122.648,119.48599999999999,5.348771808149601,0.9313725490196082,2.1014134913076696,1.7552439363938857,69.54944086661537,1.0,0.6581808584248007,0.42663458748903876,25.080268770993076,20.961079363101902,93.13725490196082,79.31932401114493,-6.862745098039178,2.139935294117663,3.688934892165679,1.2883796958460803,1.258515128588887,0.02986456725719333,1.2353014995066656,1.2150870675817065,0.020214431924959086,118.47928012799362
122.768,2019-12-09,123.193,121.919,121.974,1140900,1.6599715768780072,1.5008491579686791,0.1591224189093281,118.33200000000001,118.14911538461538,119.13086491546431,117.47089333858631,0.464849187935034,0.8463650425367373,-0.3815158546017033,0.18694559111935183,24.212441697373286,-2.7193500000000057,42.11214987331078,51.101398384546115,-8.989248511235338,120.5155,119.4555,119.9855,114.0205,69.8715063851205,32.54850952616881,66.56911967306024,26.845300857981425,182.35332494524428,112.63900000000001,107.36529999999999,96.0,0.0,96.0,117.1305651149143,119.72396838912,0.0,0.0,3230.3373712160164,1564.2264,5.842685941781932,59.19064972721892,508876.4987618856,-359776.34659890254,20.39522751765277,118.94098746600528,50.57832225287506,783.1424289649424,118.40635,121.86724908983128,114.94545091016873,5.845799806904398,1.0074765124358545,1.0,0.0,119.52353333333333,118.48213333333334,120.56493333333333,-1.7425856999988216,-0.6501184303181647,1.0,0.0,116.324,122.648,119.48599999999999,5.340929772769786,0.8847248576850095,1.9891721421769026,1.7429510127266827,68.04482617785713,0.9186942452335134,0.8272483600920416,0.6034255812027699,26.94798311033711,19.28314616282949,88.47248576850096,88.6574301570862,-11.527514231499042,2.526497058823537,4.40415838871001,1.4130918133851862,1.289430465548147,0.12366134783703919,1.367548064087847,1.2455792668829346,0.12196879720491238,119.02124151400723
122.297,2019-12-10,123.525,121.863,122.703,997200,1.7549588172431783,1.551671089823579,0.20328772741959922,118.84666666666668,118.41015384615386,119.55119339000828,117.7962345727651,0.4588328731893638,0.8738701259407745,-0.41503725275141073,0.19049358679605458,24.279869404072983,-2.950899999999976,42.64488759535369,48.62191296615562,-5.9770253708019325,120.543,119.5135,120.02825,114.048,84.93575319256024,33.47377357122461,67.9437524584676,25.44830564569362,168.73195205720774,112.73599999999999,107.4623,100.0,56.00000000000001,43.99999999999999,117.46161120801945,119.72396838912,0.0,0.0,3230.3373712160164,1441.9294,5.927245870741219,49.75646662333055,-356567.20933465613,-385245.4329799494,20.339053894181458,119.21870843384418,57.89925900002762,782.7827149251124,118.59189999999998,122.36242441445414,114.82137558554582,6.358822844484588,0.9337725526269481,0.0,0.0,120.10606666666668,119.16806666666666,121.04406666666667,-1.5619527406608975,-0.4365316275764028,1.0,0.0,116.324,122.703,119.5135,5.378950838969614,0.8683179181689916,1.9508549279592131,1.7117915755126933,67.74521296537327,0.9025038686799542,0.9403993713044893,0.8086095299404438,28.295352952054444,18.55919615013617,86.83179181689914,89.4805108291203,-13.168208183100843,3.4077235294117543,5.338542792189271,1.4898259045446016,1.329509553347438,0.1603163511971637,1.423176972675602,1.281098808041468,0.14207816463413403,119.44315554551169
122.149,2019-12-11,122.888,121.743,122.196,911800,1.7998068395549751,1.6012982397698583,0.1985085997851168,119.35516666666666,118.6365,119.88839440693008,118.0885875673751,0.4787262206421837,0.8606331076736895,-0.3819068870315058,0.19449840131111884,24.289070743578705,-2.7834999999999894,41.15743989026585,46.34011539068034,-5.18267550041449,120.543,119.5135,120.02825,114.048,92.46787659628012,33.84978619820407,66.36406035918864,29.30415470709673,129.4521444355424,112.98849999999999,107.7148,96.0,52.0,44.0,117.88092231137789,119.72396838912,0.0,0.0,3230.3373712160164,1319.7804,5.9839005464896,40.55441710571182,324050.1354902669,-373064.8394625229,20.21877226645195,119.5199877826268,57.56832251100734,782.0118991254766,118.7105,122.71363344768756,114.70736655231244,6.744362878915615,0.878765789303345,0.0,0.0,120.46396666666666,119.61086666666665,121.31706666666666,-1.4163571458021138,-0.24963857304731604,1.0,0.0,116.324,122.703,119.5135,5.373576895051411,0.8495061921931326,1.8582694351632925,1.6134685783373988,67.06376657391229,0.8656801465638556,0.8956260868257745,0.8877579394074351,29.16485196550353,19.747875587640017,84.95061921931325,86.75163226823777,-15.049380780686741,3.748091176470595,5.276675227644166,1.5241158156185928,1.368430805801669,0.1556850098169238,1.44006626040108,1.3128922985133906,0.12717396188768948,119.65747776397367
123.488,2019-12-12,123.839,121.919,122.408,1082000,1.8284734457587462,1.6467332809676358,0.18174016479111033,119.85449999999999,118.80561538461538,120.20079526740236,118.37232182164361,0.38702994979108774,0.7937923527966015,-0.4067624030055138,0.1985284016152961,24.399138751362912,-0.7340000000000089,40.38824245566056,44.43278201711467,-4.044539561454108,120.543,119.5135,120.02825,114.048,96.23393829814006,34.27065716382337,64.72189387958622,27.908672841619087,127.44657418879329,113.7705,108.49680000000001,92.0,48.0,44.0,118.26668852646766,119.72396838912,0.0,0.0,3230.3373712160164,1443.2684000000002,6.000178927562422,37.86577009061017,-673852.115185278,-427929.9329630592,20.39729495769499,119.9681663342839,64.61006274642448,782.0118991254766,118.849,123.08796053296027,114.61003946703974,7.133354984829932,0.8621170775392982,0.0,0.0,120.80096666666668,119.80476666666668,121.79716666666666,-1.649324550107056,-0.06114903299204147,1.0,0.0,116.324,122.703,119.5135,5.367314828059138,0.8770967236243917,1.8820424916469638,1.3882082364133508,67.57887338345407,0.8935152782079017,0.8872330978172371,0.9077528519825003,30.023320527746456,27.958451504631967,87.70967236243916,86.49736113288384,-12.29032763756083,4.028682352941203,5.168770001811477,1.5446798859903934,1.4036806218394138,0.14099926415097963,1.5248248986360082,1.355278818537914,0.16954608009809413,119.8533721862437
